500
I,II,III,aVR,aVL,aVF,V1,V2,V3,V4,V5,V6
-254,264,517,-5,-386,390,-98,-312,-98,810,810,527
-254,264,517,-5,-386,390,-98,-312,-98,810,810,527
-254,264,517,-5,-386,390,-98,-312,-98,810,810,527
-254,264,517,-5,-386,390,-98,-312,-98,810,810,527
-264,244,508,10,-386,376,-83,-259,-63,756,756,517
-273,234,508,20,-390,371,-68,-215,-29,712,712,508
-283,224,508,29,-395,366,-54,-171,5,669,669,498
-293,215,508,39,-400,361,-39,-127,39,625,625,488
-293,161,454,68,-376,307,10,-63,93,517,517,376
-293,117,410,88,-351,264,49,-10,137,420,420,273
-293,73,366,112,-332,220,88,44,181,322,322,171
-293,29,322,132,-307,176,127,98,224,224,224,68
-307,0,307,156,-307,151,185,171,298,117,127,-44
-322,-29,293,176,-307,132,234,244,361,20,29,-146
-337,-59,278,200,-307,107,283,317,425,-78,-68,-249
-351,-88,264,220,-307,88,332,390,488,-176,-166,-351
-342,-112,229,229,-288,59,400,498,512,-244,-229,-400
-342,-137,205,239,-273,34,468,605,527,-303,-293,-449
-342,-161,181,254,-264,10,537,712,542,-361,-356,-498
-342,-185,156,264,-249,-15,605,820,556,-420,-420,-547
-381,-200,181,293,-283,-10,644,825,410,-478,-478,-537
-410,-205,205,307,-307,0,683,830,264,-537,-537,-537
-439,-210,229,327,-337,10,722,834,117,-595,-595,-537
-468,-215,254,342,-361,20,761,839,-29,-654,-654,-537
-473,-210,264,342,-371,24,786,800,-112,-664,-664,-522
-478,-205,273,342,-376,34,810,771,-195,-664,-664,-508
-483,-200,283,342,-386,39,834,742,-278,-664,-664,-493
-488,-195,293,342,-390,49,859,712,-361,-664,-664,-478
-459,-166,293,312,-376,63,859,600,-400,-644,-644,-464
-429,-146,283,288,-356,68,859,498,-429,-634,-634,-459
-400,-127,273,264,-337,73,859,395,-459,-625,-625,-454
-371,-107,264,239,-317,78,859,293,-488,-615,-615,-449
-400,-98,303,249,-351,102,820,132,-517,-576,-576,-420
-429,-98,332,264,-381,117,781,-20,-537,-547,-547,-400
-459,-98,361,278,-410,132,742,-171,-556,-517,-517,-381
-488,-98,390,293,-439,146,703,-322,-576,-488,-488,-361
-459,-83,376,273,-420,146,664,-356,-576,-444,-444,-337
-439,-68,371,254,-405,151,625,-390,-576,-410,-410,-322
-420,-54,366,239,-395,156,586,-425,-576,-376,-376,-307
-400,-39,361,220,-381,161,547,-459,-576,-342,-342,-293
-390,-39,351,215,-371,156,493,-444,-561,-337,-337,-293
-390,-39,351,215,-371,156,449,-439,-556,-332,-332,-293
-390,-39,351,215,-371,156,405,-434,-551,-327,-327,-293
-390,-39,351,215,-371,156,361,-429,-547,-322,-322,-293
-381,-54,327,220,-356,137,307,-390,-517,-293,-293,-283
-381,-59,322,220,-351,132,254,-361,-488,-264,-264,-273
-381,-63,317,224,-351,127,200,-332,-459,-234,-234,-264
-381,-68,312,224,-346,122,146,-303,-429,-205,-205,-254
-361,-63,298,215,-332,117,122,-278,-410,-176,-181,-239
-351,-59,293,205,-322,117,98,-264,-390,-156,-156,-224
-342,-54,288,200,-317,117,73,-249,-371,-137,-132,-210
-332,-49,283,190,-307,117,49,-234,-351,-117,-107,-195
-317,-34,283,176,-303,122,44,-239,-351,-127,-112,-200
-312,-20,293,166,-303,137,39,-244,-351,-127,-117,-205
-307,-5,303,156,-307,146,34,-249,-351,-127,-122,-210
-303,10,312,146,-307,161,29,-254,-351,-127,-127,-215
-288,10,298,142,-293,151,20,-264,-356,-112,-112,-205
-273,10,283,132,-278,146,20,-264,-361,-107,-107,-205
-259,10,268,127,-264,137,20,-264,-366,-102,-102,-205
-244,10,254,117,-249,132,20,-264,-371,-98,-98,-205
-268,-15,254,142,-264,117,10,-259,-356,-102,-102,-210
-283,-29,254,156,-268,112,10,-254,-351,-107,-107,-215
-298,-44,254,171,-278,102,10,-249,-346,-112,-112,-220
-312,-59,254,185,-283,98,10,-244,-342,-117,-117,-224
-303,-68,234,185,-268,83,10,-239,-342,-117,-117,-234
-303,-68,234,185,-268,83,10,-234,-342,-117,-117,-234
-303,-68,234,185,-268,83,10,-229,-342,-117,-117,-234
-303,-68,234,185,-268,83,10,-224,-342,-117,-117,-234
-298,-63,234,181,-268,83,15,-210,-327,-102,-102,-224
-293,-59,234,176,-264,88,20,-205,-322,-98,-98,-224
-288,-54,234,171,-264,88,24,-200,-317,-93,-93,-224
-283,-49,234,166,-259,93,29,-195,-312,-88,-88,-224
-273,-44,229,161,-254,93,20,-195,-303,-102,-98,-234
-273,-39,234,156,-254,98,20,-195,-303,-107,-107,-234
-273,-34,239,156,-259,102,20,-195,-303,-112,-117,-234
-273,-29,244,151,-259,107,20,-195,-303,-117,-127,-234
-273,-44,229,161,-254,93,5,-185,-312,-112,-112,-234
-273,-49,224,161,-249,88,0,-185,-312,-107,-107,-234
-273,-54,220,166,-249,83,-5,-185,-312,-102,-102,-234
-273,-59,215,166,-244,78,-10,-185,-312,-98,-98,-234
-283,-54,229,171,-259,88,-20,-181,-298,-88,-88,-215
-283,-49,234,166,-259,93,-20,-176,-283,-78,-78,-205
-283,-44,239,166,-264,98,-20,-171,-268,-68,-68,-195
-283,-39,244,161,-264,102,-20,-166,-254,-59,-59,-185
-264,-24,239,146,-254,107,-29,-166,-244,-44,-44,-181
-254,-10,244,132,-249,117,-29,-166,-244,-39,-39,-176
-244,5,249,122,-249,127,-29,-166,-244,-34,-34,-171
-234,20,254,107,-244,137,-29,-166,-244,-29,-29,-166
-259,5,264,127,-264,132,-34,-176,-254,-20,-20,-176
-273,0,273,137,-273,137,-39,-185,-254,-20,-20,-176
-288,-5,283,146,-288,137,-44,-195,-254,-20,-20,-176
-303,-10,293,156,-298,142,-49,-205,-254,-20,-20,-176
-283,-29,254,156,-268,112,-59,-220,-264,-24,-24,-181
-273,-39,234,156,-254,98,-68,-224,-264,-29,-29,-185
-264,-49,215,156,-239,83,-78,-229,-264,-34,-34,-190
-254,-59,195,156,-224,68,-88,-234,-264,-39,-39,-195
-239,-34,205,137,-224,83,-83,-224,-259,-15,-15,-185
-224,-20,205,122,-215,93,-78,-224,-254,0,0,-185
-210,-5,205,107,-210,98,-73,-224,-249,15,15,-185
-195,10,205,93,-200,107,-68,-224,-244,29,29,-185
-205,0,205,102,-205,102,-68,-224,-239,39,39,-176
-205,0,205,102,-205,102,-68,-224,-234,39,39,-176
-205,0,205,102,-205,102,-68,-224,-229,39,39,-176
-205,0,205,102,-205,102,-68,-224,-224,39,39,-176
-210,-20,190,117,-200,83,-83,-239,-234,49,39,-185
-215,-29,185,122,-200,78,-88,-244,-234,49,39,-185
-220,-39,181,132,-200,68,-93,-249,-234,49,39,-185
-224,-49,176,137,-200,63,-98,-254,-234,49,39,-185
-224,-39,185,132,-205,73,-107,-239,-220,59,59,-185
-224,-39,185,132,-205,73,-107,-234,-215,68,68,-185
-224,-39,185,132,-205,73,-107,-229,-210,78,78,-185
-224,-39,185,132,-205,73,-107,-224,-205,88,88,-185
-205,-24,181,117,-195,78,-117,-210,-185,88,78,-171
-195,-10,185,102,-190,88,-127,-205,-176,88,78,-166
-185,5,190,93,-190,98,-137,-200,-166,88,78,-161
-176,20,195,78,-185,107,-146,-195,-156,88,78,-156
-181,5,185,88,-185,93,-151,-205,-156,78,63,-156
-185,0,185,93,-185,93,-156,-205,-156,68,59,-156
-190,-5,185,98,-190,88,-161,-205,-156,59,54,-156
-195,-10,185,102,-190,88,-166,-205,-156,49,49,-156
-185,-5,181,98,-185,88,-156,-190,-146,29,39,-161
-176,0,176,88,-176,88,-156,-185,-137,20,29,-166
-166,5,171,83,-171,88,-156,-181,-127,10,20,-171
-156,10,166,73,-161,88,-156,-176,-117,0,10,-176
-166,20,185,73,-176,102,-137,-161,-98,0,10,-171
-166,29,195,68,-181,112,-127,-146,-88,0,10,-166
-166,39,205,63,-185,122,-117,-132,-78,0,10,-161
-166,49,215,59,-190,132,-107,-117,-68,0,10,-156
-185,29,215,78,-200,122,-88,-107,-59,-10,-10,-171
-205,10,215,98,-210,112,-78,-107,-59,-20,-20,-185
-224,-10,215,117,-220,102,-68,-107,-59,-29,-29,-200
-244,-29,215,137,-229,93,-59,-107,-59,-39,-39,-215
-249,-39,210,146,-229,83,-54,-107,-49,-54,-54,-224
-254,-39,215,146,-234,88,-49,-107,-49,-59,-59,-224
-259,-39,220,151,-239,88,-44,-107,-49,-63,-63,-224
-264,-39,224,151,-244,93,-39,-107,-49,-68,-68,-224
-254,-20,234,137,-244,107,-20,-93,-44,-63,-63,-229
-244,0,244,122,-244,122,-10,-88,-39,-59,-59,-234
-234,20,254,107,-244,137,0,-83,-34,-54,-54,-239
-224,39,264,93,-244,151,10,-78,-29,-49,-49,-244
-224,34,259,98,-244,146,24,-93,-34,-63,-63,-254
-224,29,254,98,-239,142,29,-98,-39,-68,-68,-254
-224,24,249,102,-239,137,34,-102,-44,-73,-73,-254
-224,20,244,102,-234,132,39,-107,-49,-78,-78,-254
-234,20,254,107,-244,137,44,-127,-63,-88,-88,-264
-244,20,264,112,-254,142,49,-137,-68,-88,-88,-264
-254,20,273,117,-264,146,54,-146,-73,-88,-88,-264
-264,20,283,122,-273,151,59,-156,-78,-88,-88,-264
-249,34,283,107,-268,156,73,-171,-83,-93,-93,-273
-234,39,273,98,-254,156,78,-176,-88,-98,-98,-283
-220,44,264,88,-244,151,83,-181,-93,-102,-102,-293
-224,49,273,88,-249,161,88,-185,-102,-107,-107,-303
-239,34,273,102,-259,151,68,-205,-107,-112,-112,-303
-229,39,268,98,-249,151,68,-215,-112,-107,-112,-307
-224,49,273,88,-249,161,59,-220,-107,-107,-112,-312
-229,34,264,98,-249,146,49,-220,-122,-112,-117,-317
-254,10,264,122,-259,137,63,-224,-122,-112,-107,-327
-278,10,288,137,-283,146,73,-229,-122,-112,-107,-327
-288,20,307,137,-298,161,83,-229,-122,-122,-107,-327
-303,20,322,142,-312,171,83,-234,-122,-122,-112,-332
-283,24,307,132,-298,166,102,-244,-127,-132,-127,-342
-268,44,312,112,-293,176,102,-244,-132,-132,-127,-342
-259,39,298,112,-278,166,98,-249,-132,-137,-132,-361
-244,44,288,102,-268,166,98,-254,-137,-142,-142,-381
-224,63,288,83,-259,176,112,-264,-137,-142,-142,-371
-224,54,278,88,-254,166,112,-264,-142,-142,-142,-366
-239,39,278,102,-259,156,93,-268,-146,-146,-146,-361
-254,49,303,102,-278,176,102,-268,-146,-146,-146,-361
-259,49,307,107,-283,176,122,-273,-151,-151,-142,-361
-259,39,298,112,-278,166,132,-283,-146,-146,-146,-356
-268,29,298,122,-283,161,142,-298,-146,-161,-156,-356
-278,29,307,127,-293,166,151,-307,-146,-176,-171,-356
-254,49,303,102,-278,176,151,-298,-127,-156,-161,-366
-224,59,283,83,-254,171,146,-298,-122,-156,-161,-366
-195,63,259,68,-229,161,151,-303,-127,-166,-171,-386
-190,59,249,68,-220,151,151,-303,-122,-166,-171,-386
-215,49,264,83,-239,156,132,-307,-132,-171,-181,-390
-195,54,249,73,-224,151,122,-312,-132,-176,-181,-390
-185,68,254,59,-220,161,107,-312,-132,-176,-176,-371
-210,68,278,73,-244,171,93,-317,-132,-171,-166,-361
-259,39,298,112,-278,166,88,-317,-117,-161,-161,-351
-293,10,303,142,-298,156,93,-322,-112,-185,-181,-371
-312,0,312,156,-312,156,98,-317,-107,-185,-185,-371
-312,10,322,151,-317,166,117,-307,-98,-171,-190,-366
-278,39,317,122,-298,176,117,-307,-88,-181,-181,-361
-273,49,322,112,-298,185,127,-312,-88,-185,-181,-376
-283,44,327,122,-307,185,107,-317,-88,-185,-181,-381
-278,54,332,112,-307,190,112,-317,-88,-176,-176,-395
-264,68,332,98,-298,200,127,-327,-78,-171,-161,-386
-244,68,312,88,-278,190,137,-327,-78,-176,-161,-386
-234,68,303,83,-268,185,132,-327,-83,-171,-171,-386
-224,78,303,73,-264,190,156,-327,-83,-176,-176,-395
-234,73,307,83,-273,190,151,-322,-78,-181,-190,-410
-264,54,317,107,-293,185,142,-322,-83,-190,-190,-425
-278,39,317,122,-298,176,132,-332,-88,-195,-195,-429
-283,34,317,127,-303,176,127,-322,-88,-195,-195,-434
-283,49,332,117,-307,190,132,-332,-83,-195,-195,-429
-268,54,322,107,-298,185,132,-337,-83,-205,-200,-429
-249,54,303,98,-278,176,132,-342,-93,-210,-205,-439
-264,39,303,112,-283,171,132,-342,-93,-210,-205,-449
-249,49,298,102,-273,171,146,-322,-73,-190,-195,-434
-239,59,298,93,-268,176,151,-317,-68,-185,-190,-429
-234,63,298,88,-268,181,156,-307,-63,-181,-185,-425
-224,73,298,78,-264,185,161,-298,-59,-176,-181,-420
-234,54,288,93,-264,171,166,-307,-54,-176,-171,-429
-254,34,288,112,-273,161,161,-322,-63,-190,-185,-439
-273,15,288,132,-283,151,166,-322,-59,-190,-185,-444
-293,29,322,132,-307,176,176,-312,-49,-181,-176,-444
-273,59,332,107,-303,195,185,-303,-34,-171,-166,-429
-254,68,322,93,-288,195,190,-298,-29,-161,-156,-415
-244,78,322,83,-283,200,200,-298,-29,-146,-142,-400
-239,88,327,78,-283,205,210,-298,-29,-137,-132,-386
-229,93,322,68,-278,205,220,-288,-24,-127,-132,-400
-229,88,317,73,-273,200,220,-288,-20,-117,-127,-405
-244,78,322,83,-283,200,220,-298,-15,-117,-127,-410
-264,59,322,102,-293,190,210,-298,-10,-122,-127,-415
-264,63,327,102,-298,195,224,-293,-5,-107,-112,-420
-239,83,322,78,-283,200,239,-273,5,-102,-102,-415
-239,102,342,68,-293,220,244,-268,20,-93,-98,-410
-249,93,342,78,-298,215,249,-264,29,-88,-93,-410
-327,63,390,132,-361,224,303,-220,68,-59,-63,-420
-268,98,366,88,-317,229,303,-200,83,-44,-44,-429
-166,171,337,0,-254,254,303,-195,102,-24,-20,-439
-166,137,303,15,-234,220,288,-210,107,-15,-20,-454
-293,73,366,112,-332,220,278,-234,107,15,5,-449
-351,117,468,117,-410,293,259,-244,122,98,98,-390
-264,224,488,20,-376,356,234,-259,137,205,210,-317
-185,293,478,-54,-332,386,200,-307,122,317,312,-224
-200,361,561,-78,-381,459,161,-356,102,425,425,-107
-176,449,625,-137,-400,537,132,-366,132,586,586,15
-151,444,595,-146,-376,517,112,-351,185,756,747,98
-195,371,566,-88,-381,468,73,-351,224,869,859,142
-249,322,571,-34,-410,444,49,-327,268,966,961,205
-239,317,556,-39,-400,434,88,-234,361,1074,1069,273
-156,371,527,-107,-342,449,122,-146,454,1127,1127,307
-83,434,517,-176,-303,473,142,-102,459,1020,1030,293
-102,444,547,-171,-327,493,171,-63,459,791,800,229
-161,376,537,-107,-351,454,205,-10,488,600,605,142
-210,283,493,-34,-351,386,234,24,517,483,483,20
-224,220,444,5,-337,332,298,93,581,400,405,-132
-254,151,405,54,-332,278,381,205,693,312,312,-288
-322,68,390,127,-356,229,420,273,742,142,142,-429
-332,44,376,146,-356,210,444,303,752,-54,-59,-566
-298,34,332,132,-317,181,503,371,810,-156,-161,-669
-268,-29,239,151,-254,102,556,464,893,-210,-205,-742
-268,-88,181,181,-224,44,605,566,966,-283,-268,-825
-268,-122,146,195,-210,10,664,708,1035,-337,-327,-903
-273,-127,146,200,-210,10,742,815,1020,-395,-386,-956
-288,-107,181,200,-234,34,825,859,874,-498,-488,-966
-298,-112,185,205,-244,34,922,874,688,-605,-600,-966
-312,-112,200,215,-259,44,981,893,537,-644,-639,-952
-322,-88,234,205,-278,73,1020,908,439,-634,-639,-927
-322,-107,215,215,-268,54,1054,888,317,-664,-669,-927
-390,-176,215,283,-303,20,1098,820,176,-708,-703,-917
-464,-156,307,312,-386,73,1137,776,73,-698,-698,-893
-434,-49,386,244,-410,166,1181,781,15,-678,-669,-869
-390,0,390,195,-390,195,1215,756,-34,-673,-659,-849
-381,5,386,190,-386,195,1215,654,-93,-669,-664,-830
-356,10,366,176,-361,185,1191,522,-127,-683,-673,-854
-337,0,337,171,-337,166,1171,371,-151,-664,-664,-874
-337,10,346,166,-342,176,1186,185,-176,-610,-605,-859
-312,73,386,122,-351,229,1171,10,-185,-547,-551,-810
-312,93,405,112,-361,249,1113,-166,-200,-503,-503,-771
-361,88,449,137,-405,268,1054,-303,-215,-454,-454,-742
-351,127,478,112,-415,303,1010,-386,-220,-395,-400,-703
-332,151,483,93,-410,317,961,-444,-229,-361,-361,-669
-400,59,459,171,-429,259,893,-488,-234,-342,-337,-654
-434,0,434,220,-434,215,834,-508,-224,-322,-317,-654
-327,88,415,122,-371,249,786,-522,-234,-312,-303,-644
-259,156,415,54,-337,283,742,-508,-210,-288,-278,-615
-264,142,405,63,-337,273,722,-464,-146,-239,-244,-561
-268,122,390,73,-332,254,688,-420,-112,-210,-224,-542
-254,102,356,78,-307,229,620,-410,-107,-215,-220,-547
-273,117,390,78,-332,254,556,-390,-73,-181,-185,-532
-312,137,449,88,-381,293,522,-337,-24,-137,-137,-503
-356,78,434,142,-395,254,454,-346,-29,-132,-127,-517
-346,39,386,156,-366,210,390,-366,-39,-127,-117,-547
-254,127,381,63,-317,254,395,-332,0,-78,-78,-522
-239,117,356,63,-298,234,371,-337,0,-73,-83,-522
-229,127,356,54,-293,239,361,-342,5,-73,-83,-522
-224,127,351,49,-288,239,361,-346,5,-73,-78,-527
-224,127,351,49,-288,239,346,-351,5,-73,-78,-527
-244,122,366,63,-307,244,317,-356,-10,-83,-93,-532
-249,112,361,68,-307,234,332,-351,-15,-88,-93,-532
-259,83,342,88,-303,210,327,-366,-20,-93,-98,-537
-268,49,317,112,-293,181,307,-376,-24,-98,-98,-551
-273,54,327,112,-303,190,298,-381,-29,-83,-78,-532
-268,63,332,102,-303,195,288,-381,-34,-68,-63,-522
-264,73,337,98,-303,205,273,-386,-29,-68,-63,-522
-259,78,337,93,-298,205,264,-395,-34,-68,-68,-512
-254,78,332,88,-293,205,259,-381,-5,-59,-59,-498
-249,88,337,83,-293,210,259,-361,0,-49,-49,-493
-210,112,322,49,-268,215,259,-346,5,-39,-34,-488
-195,132,327,34,-264,229,254,-342,24,-29,-24,-483
-200,117,317,44,-259,215,244,-361,0,-24,-10,-503
-205,102,307,54,-259,205,244,-361,-10,-29,-15,-508
-200,102,303,49,-254,200,229,-361,-15,-34,-29,-512
-205,102,307,54,-259,205,229,-361,-15,-29,-20,-517
-210,93,303,59,-259,195,239,-346,-10,-15,-10,-512
-224,93,317,68,-273,205,244,-346,-5,-15,-10,-508
-239,88,327,78,-283,205,229,-356,-10,-15,-15,-517
-244,78,322,83,-283,200,210,-371,-15,-5,-15,-542
-244,78,322,83,-283,200,195,-390,-20,-20,-20,-556
-249,59,307,98,-278,181,190,-390,-20,-24,-20,-556
-239,59,298,93,-268,176,200,-371,-20,-29,-20,-547
-224,59,283,83,-254,171,210,-361,-20,-15,-15,-512
-210,93,303,59,-259,195,220,-361,-5,0,10,-522
-210,107,317,54,-264,210,205,-366,10,15,20,-512
-176,117,293,29,-234,205,205,-342,-5,39,44,-498
-176,132,307,24,-244,220,210,-322,15,49,54,-483
-171,122,293,24,-234,205,215,-307,10,54,44,-493
-171,112,283,29,-229,195,210,-283,10,59,54,-488
-176,102,278,39,-229,190,215,-273,29,63,59,-483
-190,88,278,54,-234,181,229,-268,20,68,68,-483
-195,98,293,49,-244,195,234,-268,24,78,73,-478
-200,98,298,54,-249,195,254,-264,34,98,93,-473
-205,93,298,59,-254,195,254,-264,39,112,102,-473
-210,83,293,63,-254,185,264,-264,44,122,117,-478
-210,73,283,68,-249,176,259,-273,54,142,137,-468
-210,83,293,63,-254,185,254,-268,63,151,151,-464
-210,68,278,73,-244,171,220,-268,63,151,151,-464
-210,68,278,73,-244,171,220,-273,54,156,161,-459
-185,78,264,54,-224,171,234,-268,73,181,171,-454
-181,83,264,49,-224,171,249,-259,73,185,171,-444
-176,83,259,49,-220,171,244,-254,88,195,185,-444
-171,83,254,44,-215,166,239,-254,88,210,195,-439
-171,83,254,44,-215,166,249,-268,98,224,220,-444
-166,73,239,49,-205,156,205,-293,73,234,229,-454
-161,63,224,49,-195,142,205,-322,83,224,215,-464
-151,73,224,39,-190,146,195,-327,102,224,224,-473
-137,102,239,20,-190,171,200,-303,112,254,249,-468
-137,122,259,10,-200,190,215,-298,122,268,254,-464
-122,112,234,5,-181,171,224,-293,122,264,249,-449
-122,117,239,5,-181,176,239,-288,132,268,254,-439
-122,112,234,5,-181,171,244,-278,146,283,273,-434
-122,107,229,10,-176,166,244,-278,151,283,278,-429
-127,93,220,20,-176,156,244,-278,161,288,298,-415
-142,78,220,34,-181,146,239,-278,171,288,293,-410
-151,63,215,44,-185,137,220,-264,166,283,288,-410
-156,59,215,49,-185,137,205,-254,166,278,283,-415
-161,68,229,49,-195,146,200,-244,171,268,273,-425
-166,68,234,49,-200,151,190,-234,185,249,259,-425
-132,93,224,20,-181,156,200,-215,185,254,244,-415
-98,107,205,-5,-151,156,210,-200,190,239,224,-425
-49,122,171,-34,-112,146,229,-215,210,229,215,-429
-34,127,161,-44,-98,142,249,-176,234,215,200,-429
-73,151,224,-39,-151,185,288,-161,234,215,210,-429
-68,171,239,-49,-156,205,312,-142,229,210,205,-429
-73,176,249,-49,-161,210,337,-137,229,200,195,-429
-78,181,259,-49,-171,220,361,-132,234,185,185,-434
-98,161,259,-29,-181,210,381,-137,224,161,151,-449
-122,151,273,-15,-200,210,410,-142,244,151,137,-454
-132,127,259,5,-195,190,434,-146,244,132,117,-459
-161,88,249,39,-205,166,454,-156,234,107,98,-468
-161,88,249,39,-205,166,478,-142,249,107,98,-454
-161,102,264,29,-215,181,508,-127,264,107,98,-459
-146,117,264,15,-205,190,527,-107,273,102,102,-444
-146,146,293,0,-220,220,547,-102,278,102,107,-425
-171,137,307,20,-239,220,537,-98,259,83,88,-434
-190,132,322,29,-259,224,542,-102,254,63,68,-454
-185,122,307,34,-249,215,547,-117,244,44,44,-503
-190,112,303,39,-249,205,551,-132,224,10,15,-561
-171,122,293,24,-234,205,581,-117,229,10,15,-561
-166,132,298,20,-234,215,600,-107,229,10,15,-551
-156,142,298,10,-229,220,615,-102,234,10,15,-532
-161,142,303,10,-234,220,625,-107,224,15,15,-512
-146,137,283,5,-215,210,620,-137,200,5,-5,-512
-127,142,268,-5,-200,205,625,-156,185,-15,-24,-522
-122,137,259,-5,-190,195,634,-171,181,-24,-24,-547
-132,127,259,5,-195,190,634,-185,161,-34,-29,-556
-146,112,259,20,-205,185,639,-185,156,-44,-44,-556
-161,102,264,29,-215,181,644,-200,142,-54,-59,-556
-176,93,268,44,-224,181,649,-210,132,-63,-63,-556
-190,83,273,54,-234,176,664,-229,132,-59,-73,-561
-190,93,283,49,-239,185,659,-239,112,-68,-88,-566
-195,93,288,54,-244,190,664,-234,107,-73,-93,-566
-195,93,288,54,-244,190,664,-234,102,-83,-93,-556
-195,102,298,49,-249,200,659,-244,98,-93,-98,-537
-132,166,298,-15,-215,229,688,-224,122,-49,-54,-537
-161,156,317,5,-239,234,708,-234,112,-49,-54,-556
-151,146,298,5,-224,220,732,-239,112,-59,-63,-571
-146,137,283,5,-215,210,732,-244,107,-68,-78,-586
-156,132,288,15,-224,210,747,-249,98,-83,-88,-576
-166,127,293,20,-229,210,752,-254,98,-88,-88,-576
-176,122,298,29,-239,210,756,-259,98,-93,-88,-576
-185,117,303,34,-244,210,761,-264,98,-98,-88,-576
-220,107,327,59,-273,215,771,-273,83,-107,-93,-576
-224,107,332,59,-278,220,781,-278,83,-98,-88,-571
-215,117,332,49,-273,224,800,-283,83,-88,-88,-571
-210,132,342,39,-278,234,810,-283,93,-83,-88,-571
-200,132,332,34,-268,229,844,-273,88,-83,-88,-576
-195,117,312,39,-254,215,874,-259,93,-83,-88,-581
-200,127,327,39,-264,224,898,-254,98,-83,-88,-586
-190,146,337,24,-264,239,922,-244,102,-93,-88,-590
-205,132,337,39,-273,234,927,-239,102,-98,-98,-590
-205,127,332,39,-268,229,942,-229,102,-98,-102,-586
-200,137,337,34,-268,234,947,-220,102,-98,-102,-571
-200,122,322,39,-264,220,947,-215,107,-102,-107,-576
-181,122,303,29,-244,210,947,-229,102,-112,-112,-581
-166,132,298,20,-234,215,952,-229,98,-112,-112,-581
-161,122,283,20,-224,200,952,-229,88,-112,-112,-576
-171,107,278,34,-224,190,932,-234,78,-117,-117,-571
-205,122,327,44,-268,224,956,-215,93,-107,-107,-566
-200,137,337,34,-268,234,971,-195,112,-98,-88,-566
-200,142,342,29,-273,239,986,-181,132,-78,-78,-561
-210,146,356,34,-283,249,1000,-171,146,-78,-73,-561
-200,146,346,29,-273,244,986,-176,142,-78,-83,-551
-195,137,332,29,-264,234,996,-181,142,-68,-73,-561
-185,127,312,29,-249,220,991,-185,137,-68,-73,-561
-176,112,288,34,-234,200,996,-195,122,-78,-83,-581
-195,88,283,54,-239,185,981,-210,112,-78,-73,-586
-220,88,307,68,-264,195,971,-215,112,-78,-73,-586
-200,93,293,54,-249,190,961,-220,112,-78,-73,-590
-190,107,298,44,-244,200,947,-220,112,-73,-68,-576
-200,117,317,44,-259,215,937,-220,117,-59,-49,-566
-229,98,327,68,-278,210,922,-224,122,-44,-39,-566
-244,78,322,83,-283,200,917,-234,127,-63,-54,-586
-244,78,322,83,-283,200,913,-234,132,-59,-54,-586
-234,88,322,73,-278,205,903,-244,117,-54,-63,-590
-215,88,303,63,-259,195,893,-244,107,-54,-63,-581
-215,78,293,68,-254,185,893,-249,98,-59,-63,-590
-229,54,283,88,-259,166,864,-254,88,-59,-63,-590
-220,63,283,78,-254,171,854,-254,93,-39,-49,-600
-205,68,273,68,-239,171,849,-259,98,-39,-44,-600
-185,68,254,59,-220,161,839,-264,102,-49,-44,-600
-176,68,244,54,-210,156,815,-268,102,-49,-54,-600
-166,88,254,39,-210,171,820,-249,112,-49,-49,-600
-171,98,268,39,-220,181,810,-244,107,-39,-44,-600
-195,93,288,54,-244,190,795,-234,102,-34,-34,-610
-205,93,298,59,-254,195,781,-234,98,-24,-29,-610
-210,107,317,54,-264,210,771,-215,107,-15,-24,-600
-205,127,332,39,-268,229,761,-205,122,-10,-20,-586
-195,137,332,29,-264,234,747,-200,132,-15,-20,-576
-181,142,322,20,-254,229,732,-195,132,-15,-20,-576
-205,107,312,49,-259,210,708,-200,132,-20,-29,-590
-205,98,303,54,-254,200,688,-205,137,-20,-24,-586
-200,98,298,54,-249,195,669,-215,137,-24,-24,-590
-200,93,293,54,-249,190,649,-220,137,-29,-24,-595
-190,102,293,44,-244,195,639,-224,132,-29,-24,-610
-176,93,268,44,-224,181,630,-229,127,-29,-24,-620
-181,73,254,54,-220,161,620,-249,107,-44,-39,-630
-185,54,239,68,-215,146,620,-254,102,-44,-39,-634
-210,63,273,73,-244,166,634,-234,127,-20,-15,-620
-215,78,293,68,-254,185,634,-234,142,-15,-10,-620
-220,73,293,73,-259,181,630,-229,156,-10,-5,-620
-234,68,303,83,-268,185,630,-229,166,0,5,-620
-220,78,298,73,-259,185,625,-239,161,0,-5,-620
-210,88,298,63,-254,190,620,-249,156,0,-5,-620
-200,88,288,59,-244,185,615,-259,151,10,0,-620
-205,83,288,63,-249,185,610,-278,146,10,0,-620
-234,68,303,83,-268,185,620,-259,156,10,15,-630
-244,68,312,88,-278,190,630,-249,166,15,20,-639
-229,83,312,73,-273,195,649,-224,181,20,29,-639
-239,98,337,73,-288,215,659,-215,200,29,34,-639
-268,24,293,122,-283,156,649,-205,195,10,24,-664
-278,54,332,112,-307,190,664,-200,205,39,44,-644
-288,88,376,102,-332,229,644,-220,200,63,63,-625
-332,34,366,151,-351,200,605,-254,171,73,78,-634
-332,127,459,102,-395,293,620,-229,215,181,176,-561
-244,307,551,-29,-400,429,659,-195,273,327,317,-439
-156,361,517,-102,-337,439,600,-264,220,361,361,-390
-166,283,449,-59,-307,366,478,-395,98,351,346,-356
-264,244,508,10,-386,376,425,-444,93,454,449,-254
-278,293,571,-5,-425,429,454,-376,200,649,659,-107
-215,361,576,-73,-395,468,473,-317,288,800,810,-5
-210,376,586,-83,-400,478,493,-273,351,903,903,68
-215,400,615,-93,-415,508,532,-195,429,996,986,142
-171,400,571,-112,-371,483,547,-132,473,1025,1020,176
-132,366,498,-117,-317,429,556,-98,478,947,942,146
-117,342,459,-112,-288,400,581,-59,483,795,795,102
-132,346,478,-107,-307,410,610,5,508,649,649,68
-171,366,537,-98,-356,449,630,44,556,566,566,24
-190,337,527,-73,-361,429,654,78,595,503,498,-63
-229,234,464,0,-346,346,693,151,673,434,444,-205
-273,161,434,59,-356,298,747,229,766,361,366,-366
-283,132,415,78,-351,273,742,254,781,224,224,-512
-303,59,361,122,-332,210,761,283,810,93,93,-654
-371,-34,337,205,-356,151,834,381,908,93,88,-742
-376,-83,293,229,-337,102,893,488,1005,88,83,-805
-307,-68,239,190,-273,83,947,620,1118,63,59,-859
-268,-59,210,166,-239,73,1015,781,1259,49,54,-903
-298,-73,224,185,-264,73,1054,883,1269,-24,-24,-932
-342,-88,254,215,-298,83,1093,922,1127,-200,-190,-966
-356,-107,249,234,-303,68,1147,937,932,-361,-351,-1015
-356,-132,224,244,-293,44,1196,932,776,-429,-415,-1044
-400,-132,268,268,-337,68,1215,961,683,-439,-434,-1049
-390,-88,303,239,-346,107,1254,1015,615,-449,-444,-1025
-303,0,303,151,-303,151,1318,1005,512,-459,-454,-976
-254,49,303,102,-278,176,1303,937,390,-473,-468,-927
-298,0,298,151,-298,146,1293,913,307,-483,-483,-913
-337,-49,288,195,-312,117,1337,956,268,-483,-473,-888
-342,-10,332,176,-337,161,1352,942,229,-468,-464,-849
-342,15,356,166,-351,185,1322,839,190,-454,-449,-830
-366,-49,317,210,-342,132,1269,698,146,-439,-439,-834
-415,-78,337,249,-376,127,1220,498,93,-410,-410,-844
-434,-29,405,234,-420,185,1176,283,39,-376,-381,-830
-390,15,405,190,-400,210,1142,88,10,-342,-337,-820
-322,54,376,137,-351,215,1093,-59,-5,-307,-307,-810
-283,78,361,102,-322,220,1035,-185,-39,-278,-268,-781
-312,59,371,127,-342,215,981,-268,-54,-239,-244,-752
-371,5,376,185,-376,190,932,-298,-44,-195,-195,-727
-390,20,410,185,-400,215,903,-303,-20,-137,-142,-693
-346,78,425,137,-386,249,854,-322,-20,-98,-93,-673
-298,117,415,93,-356,264,815,-327,-49,-88,-78,-664
-307,107,415,102,-361,259,761,-342,-73,-102,-102,-703
-342,83,425,132,-386,254,693,-327,-68,-112,-107,-737
-346,63,410,142,-381,234,649,-303,-24,-83,-88,-727
-342,-5,337,176,-342,166,610,-273,0,-68,-73,-722
-322,-20,303,171,-312,142,576,-234,34,-44,-49,-698
-293,49,342,122,-317,195,542,-171,93,10,10,-649
-259,78,337,93,-298,205,503,-132,127,63,59,-605
-249,88,337,83,-293,210,468,-112,146,78,88,-605
-244,98,342,73,-293,220,454,-107,146,88,88,-610
-249,83,332,83,-293,205,454,-98,151,107,98,-600
-249,88,337,83,-293,210,459,-88,161,112,102,-590
-254,83,337,88,-298,210,473,-78,166,117,112,-586
-264,78,342,93,-303,210,473,-68,171,122,117,-576
-264,78,342,93,-303,210,464,-68,171,117,107,-561
-259,83,342,88,-303,210,488,-59,171,117,112,-551
-259,68,327,98,-293,195,493,-68,171,117,112,-547
-259,49,307,107,-283,176,483,-73,171,117,117,-551
-268,39,307,117,-288,171,488,-73,171,122,127,-537
-268,44,312,112,-293,176,493,-68,171,137,142,-532
-268,49,317,112,-293,181,493,-68,181,137,142,-537
-268,49,317,112,-293,181,498,-73,181,137,137,-532
-259,59,317,102,-288,185,512,-63,200,151,151,-537
-239,78,317,83,-278,195,522,-49,205,156,156,-542
-185,112,298,39,-244,205,532,-39,210,161,166,-547
-156,142,298,10,-229,220,537,-39,229,166,171,-551
-185,112,298,39,-244,205,547,-34,220,176,181,-542
-205,93,298,59,-254,195,547,-29,215,176,181,-527
-215,88,303,63,-259,195,532,-24,215,176,171,-512
-234,83,317,78,-278,200,532,-20,220,185,185,-498
-210,93,303,59,-259,195,551,5,249,210,215,-493
-205,102,307,54,-259,205,566,15,259,210,215,-478
-200,107,307,49,-254,205,561,15,259,210,210,-478
-185,107,293,39,-239,200,551,10,259,220,210,-493
-200,98,298,54,-249,195,561,-5,254,220,210,-488
-220,78,298,73,-259,185,561,0,254,220,215,-488
-224,78,303,73,-264,190,576,24,254,220,220,-478
-224,78,303,73,-264,190,590,39,254,239,229,-444
-224,98,322,63,-273,210,576,10,259,254,254,-464
-229,98,327,68,-278,210,556,-15,264,259,254,-464
-200,93,293,54,-249,190,551,-10,239,273,268,-459
-205,93,298,59,-254,195,551,-10,249,273,268,-454
-210,83,293,63,-254,185,547,-10,244,273,259,-464
-210,83,293,63,-254,185,532,10,244,273,268,-459
-215,83,298,68,-259,190,527,15,264,273,273,-454
-229,78,307,78,-268,190,532,15,254,273,283,-454
-215,83,298,68,-259,190,547,20,268,293,298,-434
-200,88,288,59,-244,185,566,29,278,312,317,-415
-185,88,273,49,-229,181,566,34,283,327,327,-400
-171,83,254,44,-215,166,576,39,288,337,342,-390
-185,73,259,59,-224,166,551,34,293,346,346,-405
-190,73,264,59,-229,166,537,34,298,346,346,-415
-195,49,244,73,-220,146,493,29,293,337,332,-429
-200,39,239,83,-220,137,483,20,278,332,327,-439
-166,68,234,49,-200,151,468,10,278,351,351,-420
-161,83,244,39,-205,161,464,15,278,361,356,-405
-156,93,249,34,-205,171,439,15,293,376,376,-400
-151,102,254,24,-205,176,415,10,293,395,390,-390
-161,83,244,39,-205,161,395,0,298,410,400,-400
-156,63,220,49,-190,142,342,-10,268,410,405,-405
-151,44,195,54,-176,117,332,-24,273,390,386,-410
-142,44,185,49,-166,112,312,-15,288,381,390,-415
-146,73,220,39,-185,146,288,-5,288,410,420,-405
-146,93,239,29,-195,166,283,-5,298,425,420,-405
-132,83,215,24,-176,146,273,-5,298,420,410,-395
-132,88,220,24,-176,151,268,-5,307,425,410,-390
-107,98,205,5,-156,151,249,-20,307,425,415,-400
-102,98,200,5,-151,146,234,-24,307,420,415,-400
-102,88,190,10,-146,137,220,-29,312,420,429,-390
-112,78,190,20,-151,132,200,-34,317,415,420,-390
-117,73,190,24,-156,132,181,-29,332,415,410,-381
-117,68,185,24,-151,127,166,-29,332,415,410,-376
-117,78,195,20,-156,137,161,-29,337,410,405,-376
-117,78,195,20,-156,137,151,-29,351,395,395,-366
-132,63,195,34,-166,127,137,-15,332,386,386,-371
-137,59,195,39,-166,127,122,-15,327,366,361,-395
-127,54,181,39,-156,117,117,-44,337,351,346,-415
-151,39,190,59,-171,112,112,-20,351,332,327,-429
-166,59,224,54,-195,142,122,10,371,342,332,-420
-146,73,220,39,-185,146,127,34,376,337,332,-420
-137,73,210,34,-176,142,132,44,386,327,327,-420
-127,73,200,29,-166,137,137,54,400,312,322,-425
-122,88,210,20,-166,146,127,63,400,298,298,-439
-132,102,234,15,-185,166,137,73,429,298,293,-444
-127,102,229,15,-181,166,142,83,439,288,283,-449
-142,88,229,29,-185,156,142,88,439,273,273,-459
-151,73,224,39,-190,146,151,102,439,264,268,-459
-161,73,234,44,-200,151,176,127,449,264,264,-478
-156,73,229,44,-195,151,190,156,454,259,264,-478
-166,88,254,39,-210,171,205,171,454,259,264,-473
-161,98,259,34,-210,176,215,200,459,273,268,-459
-171,102,273,34,-224,185,229,220,468,268,264,-454
-156,102,259,29,-210,181,244,229,473,264,254,-478
-151,102,254,24,-205,176,259,239,468,244,239,-512
-137,107,244,15,-190,176,283,264,459,239,229,-522
-127,112,239,10,-185,176,298,283,454,234,229,-532
-112,117,229,0,-171,171,307,298,454,229,229,-532
-112,112,224,0,-171,166,312,303,439,229,229,-532
-122,98,220,15,-171,156,322,288,429,215,220,-527
-107,102,210,5,-161,156,332,283,420,200,200,-532
-107,98,205,5,-156,151,346,283,420,195,200,-551
-122,88,210,20,-166,146,351,283,405,190,195,-556
-122,93,215,15,-171,151,342,268,405,185,181,-547
-122,102,224,10,-176,161,342,249,386,171,166,-547
-122,112,234,5,-181,171,342,234,371,156,161,-547
-122,122,244,0,-185,181,351,210,366,156,151,-551
-161,102,264,29,-215,181,337,215,351,142,146,-556
-185,83,268,54,-229,176,342,224,342,142,142,-556
-205,63,268,73,-239,166,342,229,332,137,142,-547
-224,54,278,88,-254,166,337,224,322,132,137,-527
-181,63,244,59,-215,151,346,210,312,142,137,-527
-151,88,239,34,-195,161,346,215,307,146,142,-527
-122,132,254,-5,-190,190,361,224,312,151,146,-522
-93,171,264,-39,-181,215,371,229,327,156,151,-512
-117,146,264,-15,-190,205,356,229,312,142,137,-532
-132,137,268,0,-200,200,346,215,303,127,122,-551
-146,132,278,10,-215,205,342,210,298,122,117,-551
-171,132,303,20,-239,215,346,205,298,122,117,-551
-151,137,288,10,-220,210,332,224,317,132,132,-542
-156,142,298,10,-229,220,322,239,322,142,142,-547
-127,122,249,5,-190,185,312,254,303,142,142,-547
-93,137,229,-20,-161,181,312,273,307,132,132,-527
-117,112,229,5,-176,171,293,268,298,102,112,-527
-137,78,215,29,-176,146,264,249,273,78,83,-561
-137,54,190,44,-166,122,239,244,268,73,73,-571
-146,49,195,49,-171,122,215,249,273,88,78,-571
-132,68,200,34,-166,132,205,249,273,78,68,-571
-127,78,205,24,-166,142,185,249,259,73,68,-586
-122,93,215,15,-171,151,195,254,264,73,73,-586
-127,107,234,10,-181,171,205,254,278,78,78,-586
-127,93,220,20,-176,156,190,244,288,83,88,-600
-122,83,205,20,-166,142,185,234,293,83,88,-590
-122,78,200,24,-161,137,181,224,293,88,88,-571
-142,68,210,39,-176,137,176,215,283,93,83,-556
-151,68,220,44,-185,142,185,215,293,98,93,-547
-151,83,234,34,-195,156,195,224,307,98,93,-556
-161,98,259,34,-210,176,205,224,307,98,93,-576
-171,98,268,39,-220,181,205,220,293,98,93,-576
-151,88,239,34,-195,161,195,200,278,78,83,-576
-142,78,220,34,-181,146,181,181,273,73,78,-576
-132,78,210,29,-171,142,176,166,268,68,73,-586
-122,78,200,24,-161,137,176,151,249,63,68,-595
-102,88,190,10,-146,137,156,122,239,44,44,-634
-93,63,156,15,-127,107,146,107,239,24,24,-654
-156,20,176,68,-166,98,185,127,273,59,49,-644
-142,44,185,49,-166,112,200,137,278,68,59,-630
-137,59,195,39,-166,127,205,146,283,78,68,-615
-132,73,205,29,-171,137,210,156,288,88,78,-600
-127,88,215,20,-171,151,215,166,293,98,88,-586
-161,78,239,44,-200,156,215,171,278,88,83,-600
-166,68,234,49,-200,151,215,171,278,88,88,-600
-156,68,224,44,-190,146,224,171,278,88,88,-605
-151,73,224,39,-190,146,224,176,288,83,88,-610
-161,63,224,49,-195,142,220,176,268,83,78,-590
-166,39,205,63,-185,122,220,181,268,83,78,-581
-181,39,220,73,-200,127,215,176,268,83,78,-571
-181,49,229,68,-205,137,210,176,268,73,78,-561
-176,63,239,59,-210,151,205,176,278,83,78,-576
-166,78,244,44,-205,161,220,181,278,88,83,-586
-151,107,259,24,-205,181,224,185,278,93,93,-586
-142,112,254,15,-200,181,224,185,283,93,98,-605
-137,93,229,24,-185,161,244,210,293,107,107,-605
-127,93,220,20,-176,156,259,229,303,112,112,-610
-127,73,200,29,-166,137,268,249,307,117,117,-610
-142,49,190,49,-166,117,259,264,312,117,117,-610
-156,68,224,44,-190,146,273,259,303,122,127,-586
-142,78,220,34,-181,146,278,264,307,127,137,-566
-132,78,210,29,-171,142,283,264,312,142,137,-542
-132,78,210,29,-171,142,288,259,312,137,132,-522
-122,98,220,15,-171,156,303,268,303,127,132,-532
-117,98,215,10,-166,156,322,268,307,137,142,-542
-107,98,205,5,-156,151,327,268,307,137,142,-542
-98,93,190,5,-146,142,342,264,298,127,132,-561
-98,93,190,5,-146,142,342,249,293,117,127,-547
-112,98,210,10,-161,151,337,244,288,117,122,-537
-83,107,190,-10,-137,146,332,239,283,117,117,-532
-63,127,190,-29,-127,156,322,239,278,122,117,-508
-98,112,210,-5,-156,161,337,239,283,142,132,-508
-132,88,220,24,-176,151,337,234,288,151,146,-508
-151,63,215,44,-185,137,346,224,293,127,137,-527
-156,59,215,49,-185,137,356,224,298,127,142,-527
-127,88,215,20,-171,151,356,210,293,137,127,-532
-98,98,195,0,-146,146,346,205,283,132,122,-522
-88,98,185,-5,-137,142,346,195,273,122,117,-532
-93,83,176,5,-137,127,317,185,264,117,112,-532
-122,63,185,29,-156,122,307,195,273,137,127,-517
-146,49,195,49,-171,122,303,200,273,137,132,-493
-166,29,195,68,-181,112,293,205,273,127,132,-468
-195,10,205,93,-200,107,268,210,268,127,122,-444
-171,29,200,73,-185,112,264,195,268,107,107,-459
-161,39,200,63,-181,117,244,185,264,107,102,-464
-171,34,205,68,-190,117,220,181,259,102,102,-478
-166,34,200,68,-185,117,195,166,254,102,98,-483
-146,39,185,54,-166,112,185,195,259,112,112,-473
-127,59,185,34,-156,122,176,205,268,117,117,-468
-102,68,171,20,-137,117,161,210,273,112,117,-468
-73,73,146,0,-112,107,146,215,268,112,117,-478
-112,44,156,34,-137,98,137,224,259,102,107,-488
-127,29,156,49,-142,93,132,224,264,107,112,-478
-137,24,161,59,-151,93,127,220,264,107,112,-478
-151,15,166,68,-161,88,122,220,264,107,112,-478
-137,49,185,44,-161,117,132,215,273,117,112,-468
-117,63,181,29,-151,122,122,210,273,117,112,-464
-117,68,185,24,-151,127,112,190,259,102,98,-459
-117,73,190,24,-156,132,112,185,259,102,98,-449
-117,88,205,15,-161,146,122,210,273,102,107,-449
-98,107,205,-5,-151,156,127,224,278,102,107,-454
-78,107,185,-15,-132,146,127,244,283,102,107,-459
-68,107,176,-20,-122,142,132,259,283,107,112,-464
-98,88,185,5,-142,137,137,273,293,107,102,-468
-112,88,200,15,-156,142,142,288,293,107,102,-473
-127,78,205,24,-166,142,146,303,293,117,107,-478
-156,63,220,49,-190,142,151,307,293,117,107,-483
-176,29,205,73,-190,117,137,293,278,93,88,-488
-176,20,195,78,-185,107,132,288,273,83,78,-503
-151,24,176,63,-166,98,137,298,273,73,73,-508
-151,29,181,63,-166,102,132,293,278,68,63,-512
-151,-5,146,78,-151,68,151,283,293,88,93,-527
-229,63,293,83,-264,176,185,307,322,146,142,-459
-268,107,376,83,-322,239,176,278,307,171,171,-439
-205,142,346,34,-278,244,127,215,288,220,215,-390
-166,215,381,-24,-273,298,112,190,312,327,312,-278
-127,317,444,-93,-288,381,83,156,293,415,405,-156
-137,293,429,-78,-283,361,5,59,210,439,429,-68
-166,264,429,-49,-298,346,-49,15,195,498,503,-5
-117,332,449,-107,-283,390,-54,54,268,639,634,78
-83,371,454,-142,-268,410,-73,83,317,766,766,156
-88,390,478,-151,-283,434,-63,122,376,878,888,278
-54,434,488,-190,-273,459,-5,205,459,991,991,439
-10,439,449,-215,-229,444,44,293,547,1054,1054,551
-15,381,395,-181,-205,386,68,327,561,1005,1000,556
-83,307,390,-112,-239,346,49,312,537,820,815,498
-137,293,429,-78,-283,361,44,303,522,639,630,405
-102,307,410,-102,-259,356,63,327,556,542,542,322
-73,298,371,-112,-224,332,112,386,615,508,498,239
-132,220,351,-44,-244,283,146,449,683,483,488,161
-190,146,337,24,-264,239,156,483,752,434,444,29
-215,112,327,54,-273,220,171,512,786,351,356,-142
-215,112,327,54,-273,220,234,595,859,312,312,-307
-205,78,283,63,-244,181,303,712,976,317,317,-459
-234,-73,161,156,-200,44,327,761,1044,268,264,-605
-268,-132,137,200,-205,0,376,859,1152,244,229,-678
-210,-39,171,127,-190,63,468,1039,1342,288,273,-673
-122,-10,112,68,-117,49,508,1142,1386,234,239,-708
-142,-63,78,102,-112,5,527,1186,1298,54,54,-776
-215,-49,166,132,-190,59,586,1235,1157,-112,-102,-761
-239,-49,190,146,-215,68,620,1279,1020,-215,-205,-752
-268,-122,146,195,-210,10,620,1313,913,-273,-259,-781
-293,-171,122,234,-210,-24,620,1352,820,-322,-317,-825
-244,-107,137,176,-190,15,649,1366,722,-361,-366,-800
-205,-29,176,117,-190,73,703,1386,639,-351,-356,-752
-234,-49,185,142,-210,68,737,1405,605,-337,-342,-742
-298,-107,190,205,-244,39,727,1410,542,-376,-376,-747
-317,-98,220,210,-268,59,712,1366,473,-405,-405,-742
-273,-20,254,146,-264,117,727,1313,454,-342,-346,-712
-234,15,249,112,-244,132,717,1181,415,-288,-283,-683
-259,-10,249,137,-254,117,664,981,303,-264,-264,-669
-268,0,268,137,-268,132,605,752,200,-254,-244,-678
-249,49,298,102,-273,171,542,556,127,-239,-234,-693
-224,73,298,78,-264,185,488,410,88,-215,-210,-703
-195,63,259,68,-229,161,449,303,73,-171,-171,-664
-224,29,254,98,-239,142,410,264,59,-132,-132,-615
-303,20,322,142,-312,171,395,268,83,-73,-78,-586
-244,112,356,68,-303,234,395,298,132,0,-10,-561
-156,195,351,-20,-254,273,376,303,127,39,44,-517
-190,146,337,24,-264,239,317,264,68,39,44,-527
-200,88,288,59,-244,185,249,229,20,20,29,-556
-190,78,268,59,-229,171,215,264,34,24,24,-547
-244,44,288,102,-268,166,205,307,68,24,39,-542
-249,24,273,112,-264,146,190,332,102,34,29,-551
-205,73,278,68,-244,176,200,361,166,78,73,-537
-224,59,283,83,-254,171,166,390,220,132,117,-522
-254,10,264,122,-259,137,83,366,220,127,117,-522
-161,68,229,49,-195,146,54,366,244,151,146,-508
-102,156,259,-24,-181,205,68,405,283,215,215,-468
-156,137,293,10,-224,215,54,400,264,224,224,-483
-137,112,249,15,-195,181,20,386,239,215,210,-493
-122,107,229,10,-176,166,10,371,229,200,200,-503
-112,93,205,10,-161,146,10,356,215,185,195,-517
-107,78,185,15,-146,132,-5,342,200,171,185,-527
-137,68,205,34,-171,137,0,346,210,176,171,-517
-151,63,215,44,-185,137,29,361,220,176,171,-512
-171,39,210,68,-190,122,39,356,229,176,166,-512
-190,10,200,93,-195,102,34,356,239,176,166,-522
-185,15,200,88,-195,107,24,356,229,181,185,-522
-181,24,205,78,-195,112,24,361,220,195,200,-522
-176,34,210,73,-195,122,20,361,220,195,200,-532
-171,39,210,68,-190,122,20,356,210,195,195,-532
-185,39,224,73,-205,132,44,376,215,195,185,-517
-190,39,229,78,-210,132,54,400,215,195,185,-512
-161,54,215,54,-190,132,63,420,215,195,190,-508
-156,63,220,49,-190,142,68,429,229,195,190,-503
-137,59,195,39,-166,127,83,429,239,215,210,-517
-127,54,181,39,-156,117,88,439,244,215,210,-517
-107,63,171,24,-142,117,78,449,254,215,200,-517
-98,73,171,15,-137,122,83,459,268,224,215,-517
-78,98,176,-10,-127,137,127,478,268,239,244,-503
-78,112,190,-15,-137,151,156,483,268,239,244,-488
-78,122,200,-20,-142,161,166,478,259,239,239,-488
-68,127,195,-29,-132,161,171,468,249,249,239,-503
-93,102,195,-5,-146,146,200,449,259,239,239,-517
-122,68,190,29,-156,127,229,449,264,239,244,-517
-137,54,190,44,-166,122,273,468,268,239,249,-508
-146,39,185,54,-166,112,317,478,273,259,259,-473
-117,63,181,29,-151,122,303,464,268,273,273,-483
-102,68,171,20,-137,117,283,444,273,278,273,-483
-54,68,122,-5,-88,93,278,454,249,293,288,-478
-39,73,112,-15,-78,93,278,459,259,293,288,-473
-44,63,107,-10,-78,83,288,459,259,283,283,-483
-54,63,117,-5,-88,88,278,478,254,283,288,-488
-68,63,132,5,-102,98,278,483,268,283,288,-493
-93,59,151,20,-122,102,288,483,254,283,293,-503
-102,44,146,29,-127,93,273,498,264,303,298,-493
-112,39,151,39,-132,93,283,508,278,322,317,-483
-122,29,151,49,-137,88,273,512,288,337,327,-478
-132,15,146,59,-142,78,273,517,298,346,342,-478
-122,20,142,54,-132,78,244,508,288,351,346,-473
-112,34,146,39,-132,88,224,512,288,356,356,-473
-102,24,127,39,-117,73,176,512,278,351,351,-478
-93,29,122,34,-107,73,161,508,259,351,356,-478
-88,29,117,29,-102,73,166,527,283,376,371,-464
-93,24,117,34,-107,68,181,542,288,381,376,-454
-98,15,112,44,-107,63,176,551,307,390,395,-454
-102,5,107,49,-107,54,171,556,312,405,410,-449
-78,15,93,34,-88,54,146,551,317,420,415,-449
-59,5,63,29,-63,34,88,537,288,420,415,-454
-39,-5,34,24,-39,15,73,517,293,400,390,-459
-15,5,20,5,-20,10,49,522,307,390,390,-464
-29,10,39,10,-34,24,49,532,307,410,415,-439
-39,24,63,10,-54,44,49,532,317,425,420,-434
-34,10,44,15,-39,24,44,532,317,420,415,-420
-44,10,54,20,-49,29,44,532,327,425,420,-410
-34,20,54,10,-44,34,34,551,351,444,439,-420
-34,20,54,10,-44,34,29,561,356,449,444,-420
-39,10,49,15,-44,29,24,571,366,459,464,-410
-54,0,54,29,-54,24,15,581,376,464,459,-410
-63,-5,59,34,-63,24,-5,576,371,459,449,-410
-68,-10,59,39,-63,24,-20,576,371,454,449,-415
-73,0,73,39,-73,34,-24,576,376,444,444,-425
-78,0,78,39,-78,39,-34,576,390,425,434,-425
-59,10,68,24,-63,39,-20,590,381,429,429,-420
-39,10,49,15,-44,29,-15,600,386,415,410,-434
-5,10,15,0,-10,10,0,581,405,405,400,-444
-5,0,5,5,-5,0,15,615,429,390,386,-449
-34,15,49,10,-44,29,29,649,449,405,400,-434
-20,34,54,-5,-39,44,39,678,454,405,400,-429
-15,39,54,-10,-34,44,49,693,464,400,395,-425
-10,44,54,-15,-34,49,59,708,478,390,390,-425
-20,59,78,-20,-49,68,63,732,478,381,381,-434
-34,73,107,-20,-73,88,78,747,508,386,381,-444
-34,73,107,-20,-73,88,88,761,517,381,376,-454
-54,59,112,0,-83,83,93,771,517,371,371,-468
-68,44,112,15,-93,78,107,771,517,366,361,-468
-73,44,117,15,-98,78,127,781,527,361,351,-488
-63,44,107,10,-88,73,137,795,532,351,346,-488
-68,59,127,5,-98,93,146,795,532,346,342,-483
-63,49,112,10,-88,78,151,805,527,356,351,-483
-73,54,127,10,-102,88,161,805,527,346,342,-483
-59,54,112,5,-88,83,171,795,522,337,327,-512
-54,54,107,0,-83,78,181,786,508,312,307,-551
-59,44,102,10,-83,73,195,786,498,307,298,-556
-68,44,112,15,-93,78,210,781,493,303,298,-561
-73,44,117,15,-98,78,220,771,493,298,298,-556
-93,34,127,29,-112,78,224,752,478,298,298,-551
-102,39,142,34,-122,88,234,742,478,307,303,-532
-88,54,142,20,-117,98,244,742,468,298,288,-532
-88,59,146,15,-117,102,259,747,468,298,293,-547
-102,59,161,24,-132,107,264,752,454,298,293,-547
-88,63,151,15,-122,107,254,727,434,273,278,-566
-83,63,146,10,-117,102,254,708,405,259,264,-576
-78,63,142,10,-112,102,254,693,381,244,259,-586
-73,63,137,5,-107,98,264,669,366,244,249,-600
-5,112,117,-54,-63,112,273,688,366,239,234,-605
-107,63,171,24,-142,117,283,673,351,229,229,-595
-156,5,161,78,-161,83,288,654,337,215,210,-605
-88,49,137,20,-112,93,293,654,332,215,215,-625
-78,59,137,10,-107,98,278,649,317,205,205,-644
-78,59,137,10,-107,98,273,644,312,205,205,-654
-78,59,137,10,-107,98,268,639,307,205,205,-664
-78,59,137,10,-107,98,264,634,303,205,205,-673
-107,39,146,34,-127,93,249,625,293,185,185,-659
-107,29,137,39,-122,83,234,610,288,185,185,-649
-93,29,122,34,-107,73,229,595,283,185,181,-644
-83,34,117,24,-102,73,215,586,288,181,176,-639
-93,34,127,29,-112,78,215,581,278,181,176,-654
-98,20,117,39,-107,68,220,590,278,181,176,-659
-112,29,142,44,-127,83,220,590,278,181,176,-664
-112,49,161,34,-137,102,220,595,278,171,176,-669
-98,54,151,24,-127,102,200,586,273,166,166,-688
-78,59,137,10,-107,98,210,581,268,166,161,-693
-54,78,132,-10,-93,102,210,576,264,166,161,-688
-34,73,107,-20,-73,88,205,566,264,161,156,-703
-54,59,112,0,-83,83,205,566,264,151,142,-698
-59,63,122,0,-93,93,210,571,264,151,142,-698
-73,49,122,15,-98,83,210,576,259,151,142,-693
-102,29,132,39,-117,78,190,576,254,146,137,-688
-107,20,127,44,-117,73,190,576,244,137,137,-698
-83,20,102,34,-93,59,190,576,249,137,146,-703
-63,10,73,29,-68,39,190,571,254,146,146,-703
-54,0,54,29,-54,24,190,561,254,137,142,-708
-68,5,73,34,-73,39,181,561,254,117,127,-717
-68,0,68,34,-68,34,185,561,259,127,132,-727
-63,-5,59,34,-63,24,176,561,259,127,127,-727
-59,-15,44,39,-54,15,176,556,249,117,112,-747
-83,-34,49,59,-68,5,171,542,259,117,112,-752
-112,-39,73,78,-93,15,171,537,259,117,112,-752
-98,-39,59,68,-78,10,171,532,259,117,112,-756
-93,-29,63,63,-78,15,166,532,259,122,117,-742
-93,-39,54,68,-73,5,171,537,273,142,137,-732
-102,-59,44,83,-73,-10,171,537,278,151,146,-732
-98,-78,20,88,-59,-29,181,532,283,127,132,-752
-78,-78,0,78,-39,-39,190,537,288,127,132,-752
-68,-63,5,68,-39,-29,205,547,293,137,122,-747
-49,-59,-10,54,-20,-34,210,556,293,132,122,-737
-49,-63,-15,59,-20,-39,224,561,293,122,122,-747
-63,-83,-20,73,-24,-54,210,566,293,117,122,-747
-78,-83,-5,83,-39,-44,229,576,293,127,127,-747
-88,-78,10,83,-49,-34,234,581,293,127,132,-747
-93,-78,15,88,-54,-34,234,586,293,117,132,-747
-107,-78,29,93,-68,-24,220,590,288,117,122,-747
-88,-63,24,78,-59,-20,234,600,293,112,127,-737
-83,-59,24,73,-54,-20,234,595,293,117,122,-727
-98,-68,29,83,-63,-20,229,595,293,117,122,-727
-98,-73,24,88,-63,-24,224,586,293,122,117,-717
-107,-73,34,93,-73,-20,229,590,303,127,117,-727
-98,-59,39,78,-68,-10,234,586,307,127,117,-722
-83,-54,29,68,-59,-15,234,576,307,117,112,-722
-63,-54,10,59,-39,-24,234,566,298,112,107,-732
-88,-59,29,73,-59,-15,239,576,288,122,117,-732
-88,-49,39,68,-63,-5,239,576,293,127,122,-722
-83,-29,54,59,-68,10,239,571,293,127,122,-722
-83,-15,68,49,-78,24,239,571,293,127,122,-722
-83,-24,59,54,-73,15,239,561,283,122,117,-712
-78,-54,24,68,-54,-15,229,561,283,117,112,-717
-93,-93,0,93,-49,-49,220,547,268,98,93,-722
-107,-132,-24,122,-44,-78,220,547,268,93,88,-722
-102,-107,-5,107,-49,-59,234,561,283,117,107,-703
-78,-78,0,78,-39,-39,244,566,288,122,117,-698
-54,-68,-15,63,-20,-44,249,576,293,127,127,-693
-39,-59,-20,49,-10,-39,259,581,293,137,142,-688
-54,-78,-24,68,-15,-54,254,595,283,127,137,-698
-63,-78,-15,73,-24,-49,249,600,283,127,132,-698
-73,-88,-15,83,-29,-54,244,605,283,137,132,-698
-98,-102,-5,102,-49,-54,239,600,283,137,127,-698
-122,-132,-10,127,-59,-73,224,615,283,137,132,-693
-127,-137,-10,132,-59,-73,220,620,283,142,137,-698
-107,-127,-20,117,-44,-73,224,639,288,146,146,-693
-112,-117,-5,117,-54,-63,220,644,298,156,151,-688
-54,-63,-10,59,-24,-39,239,683,312,156,161,-693
-44,-44,0,44,-24,-24,224,688,303,156,161,-693
-93,-88,5,93,-49,-44,205,678,307,142,151,-703
-127,-142,-15,137,-59,-78,205,664,317,142,137,-722
-137,-137,0,137,-68,-68,200,669,332,161,146,-747
-107,-73,34,93,-73,-20,200,683,342,190,181,-722
-78,-29,49,54,-63,10,190,683,346,224,215,-683
-107,-10,98,59,-102,44,156,649,332,283,278,-639
-107,29,137,39,-122,83,112,630,337,376,371,-556
-93,68,161,15,-127,112,73,590,307,464,464,-468
-107,107,215,0,-161,161,24,522,278,517,517,-366
-73,200,273,-63,-176,234,5,478,283,620,630,-254
-20,254,273,-117,-146,264,-15,449,312,761,761,-161
-24,234,259,-102,-142,244,-39,444,346,869,874,-68
-34,278,312,-122,-176,293,-29,488,410,976,971,59
29,371,342,-200,-156,356,-5,556,493,1069,1059,190
73,366,293,-220,-112,327,-15,600,547,1088,1078,273
15,317,303,-166,-146,307,5,639,556,966,966,278
-54,249,303,-98,-181,273,39,693,566,727,732,229
-102,146,249,-20,-176,195,68,747,595,503,512,146
-166,112,278,29,-224,195,102,795,649,361,376,63
-137,151,288,-5,-215,220,146,859,712,264,273,-24
-68,146,215,-39,-142,181,215,956,830,220,220,-146
-88,63,151,15,-122,107,259,1044,937,171,166,-293
-142,5,146,68,-146,73,278,1064,966,39,34,-454
-93,29,122,34,-107,73,332,1127,1010,-44,-49,-576
-34,-10,24,24,-29,5,400,1240,1103,-59,-63,-688
-83,-112,-29,98,-29,-73,459,1352,1152,-132,-142,-815
-156,-146,10,151,-83,-68,547,1479,1157,-259,-259,-908
-161,-146,15,156,-88,-68,639,1581,1069,-381,-371,-966
-142,-190,-49,166,-49,-122,678,1566,864,-527,-512,-1044
-146,-200,-54,176,-49,-127,737,1537,664,-625,-610,-1088
-137,-185,-49,161,-44,-117,815,1581,595,-576,-581,-1074
-137,-224,-88,181,-24,-156,839,1620,532,-537,-542,-1074
-117,-205,-88,161,-15,-146,864,1601,400,-571,-576,-1113
-122,-156,-34,142,-44,-98,903,1566,288,-581,-590,-1098
-190,-224,-34,210,-78,-132,927,1542,220,-581,-581,-1064
-224,-234,-10,229,-107,-122,971,1586,210,-547,-551,-1035
-195,-161,34,181,-117,-63,1010,1591,220,-503,-498,-1005
-200,-176,24,190,-112,-78,1005,1488,195,-478,-468,-991
-171,-156,15,166,-93,-73,1005,1337,161,-449,-439,-981
-122,-78,44,102,-83,-20,991,1161,117,-405,-400,-976
-156,-142,15,151,-88,-63,898,898,20,-400,-395,-986
-264,-210,54,239,-161,-78,820,683,-44,-376,-376,-976
-264,-137,127,200,-195,-5,791,547,-29,-288,-288,-898
-234,-78,156,156,-195,39,756,434,-34,-229,-234,-859
-254,-93,161,176,-210,34,698,356,-44,-195,-195,-864
-244,-88,156,166,-200,34,659,342,-29,-156,-161,-859
-210,-78,132,146,-171,24,620,322,0,-127,-122,-839
-200,-68,132,137,-166,29,590,298,10,-117,-107,-830
-210,-59,151,137,-181,44,547,283,-5,-112,-102,-830
-195,-54,142,127,-171,44,508,278,0,-93,-88,-805
-132,-34,98,83,-117,29,473,322,34,-44,-39,-766
-127,-63,63,98,-98,0,395,322,39,-39,-44,-781
-185,-117,68,151,-127,-24,332,312,24,-63,-68,-805
-137,-68,68,102,-102,0,317,366,73,-10,-20,-786
-44,-49,-5,49,-20,-29,307,415,137,44,39,-752
-102,-98,5,102,-54,-49,254,425,166,49,49,-742
-166,-117,49,142,-107,-34,220,420,185,68,68,-737
-146,-127,20,137,-83,-54,185,410,185,83,83,-747
-132,-117,15,127,-73,-54,176,410,190,83,83,-747
-122,-117,5,122,-63,-59,176,410,190,83,88,-752
-117,-117,0,117,-59,-59,161,410,190,83,88,-752
-112,-88,24,102,-68,-34,137,425,195,102,98,-747
-102,-73,29,88,-68,-24,156,439,200,107,102,-737
-98,-78,20,88,-59,-29,156,434,205,112,102,-732
-93,-88,5,93,-49,-44,142,434,210,117,107,-737
-112,-98,15,107,-63,-44,151,425,200,107,102,-727
-122,-102,20,112,-73,-44,151,429,200,117,112,-727
-132,-107,24,122,-78,-44,146,429,210,112,107,-737
-142,-117,24,132,-83,-49,146,425,210,107,98,-737
-161,-132,29,146,-98,-54,142,410,210,112,102,-737
-161,-137,24,151,-93,-59,132,420,205,117,107,-737
-127,-127,0,127,-63,-63,122,425,200,122,117,-737
-117,-122,-5,122,-59,-63,107,420,210,127,122,-737
-102,-117,-15,112,-44,-68,107,415,210,132,127,-752
-88,-112,-24,102,-34,-68,107,420,205,127,122,-752
-63,-93,-29,78,-20,-63,93,425,205,122,107,-752
-49,-73,-24,63,-15,-49,93,429,210,127,117,-752
-63,-78,-15,73,-24,-49,122,459,239,132,146,-742
-88,-83,5,88,-49,-39,137,473,249,132,146,-732
-112,-93,20,102,-68,-39,132,478,249,132,142,-737
-127,-107,20,117,-73,-44,122,478,249,142,142,-756
-122,-83,39,102,-83,-24,122,478,249,156,146,-752
-122,-88,34,107,-78,-29,122,488,254,161,156,-752
-107,-73,34,93,-73,-20,137,517,259,166,166,-742
-88,-59,29,73,-59,-15,151,537,264,190,181,-708
-107,-78,29,93,-68,-24,132,517,259,176,171,-752
-122,-107,15,117,-68,-49,107,503,264,161,156,-766
-102,-142,-39,122,-34,-93,98,517,239,156,156,-776
-117,-171,-54,146,-34,-112,93,527,249,137,142,-786
-107,-146,-39,127,-34,-93,98,532,268,156,156,-766
-102,-122,-20,112,-44,-73,93,556,273,176,181,-752
-102,-98,5,102,-54,-49,98,566,298,195,200,-737
-112,-78,34,98,-73,-24,112,571,293,215,224,-727
-117,-93,24,107,-73,-34,112,576,303,220,224,-722
-122,-98,24,112,-73,-39,127,586,307,234,239,-717
-127,-107,20,117,-73,-44,122,590,307,244,244,-717
-132,-122,10,127,-73,-59,127,595,307,249,254,-722
-127,-127,0,127,-63,-63,127,605,312,264,259,-727
-122,-122,0,122,-63,-63,117,610,317,268,268,-727
-117,-142,-24,132,-49,-83,78,610,312,264,264,-732
-112,-146,-34,132,-39,-93,73,605,298,264,268,-732
-102,-146,-44,127,-29,-98,83,615,312,293,293,-737
-112,-142,-29,127,-44,-88,93,620,317,303,298,-727
-122,-142,-20,132,-54,-83,83,620,337,317,317,-727
-132,-142,-10,137,-63,-78,73,615,342,337,332,-722
-117,-122,-5,122,-59,-63,93,630,361,376,371,-708
-98,-112,-15,107,-44,-63,68,634,346,390,386,-698
-78,-102,-24,93,-29,-63,88,634,366,386,376,-688
-54,-73,-20,63,-20,-49,98,659,395,390,390,-678
-54,-83,-29,68,-15,-59,83,673,381,405,420,-659
-59,-83,-24,73,-20,-54,78,669,376,415,420,-649
-49,-112,-63,83,5,-88,68,664,361,405,410,-630
-54,-127,-73,93,10,-102,63,659,356,405,410,-615
-54,-117,-63,88,5,-93,59,654,361,410,415,-639
-54,-117,-63,88,5,-93,49,649,356,410,415,-644
-59,-127,-68,93,5,-98,39,644,356,415,429,-639
-73,-137,-63,107,-5,-102,24,639,356,415,420,-644
-63,-127,-63,98,0,-98,20,644,361,425,429,-639
-59,-127,-68,93,5,-98,10,644,361,425,429,-639
-54,-112,-59,83,0,-88,10,644,366,420,425,-644
-49,-107,-59,78,5,-83,5,644,381,405,415,-639
-44,-102,-59,73,5,-83,5,659,366,405,415,-634
-39,-98,-59,68,10,-78,-5,659,366,395,400,-649
-20,-93,-73,59,24,-83,-5,630,381,390,395,-659
-34,-98,-63,68,15,-83,-5,654,400,381,386,-664
-68,-93,-24,83,-24,-59,-10,669,400,376,371,-664
-59,-83,-24,73,-20,-54,-20,678,395,366,361,-664
-59,-88,-29,73,-15,-59,-29,673,395,351,346,-664
-59,-93,-34,78,-15,-63,-39,669,400,332,332,-669
-49,-68,-20,59,-15,-44,-39,673,395,317,317,-659
-54,-44,10,49,-34,-20,-29,688,420,317,312,-659
-44,-34,10,39,-29,-15,-24,703,425,307,303,-659
-54,-39,15,49,-34,-15,-24,712,420,293,293,-664
-63,-63,0,63,-34,-34,-34,703,415,273,268,-678
-63,-63,0,63,-34,-34,-20,712,420,264,254,-703
-49,-63,-15,59,-20,-39,-15,727,420,249,244,-708
-49,-49,0,49,-24,-24,-10,727,415,239,234,-708
-68,-59,10,63,-39,-24,5,742,400,220,224,-698
-83,-54,29,68,-59,-15,15,747,400,200,205,-698
-73,-54,20,63,-49,-20,24,742,395,181,181,-727
-73,-54,20,63,-49,-20,34,737,381,146,151,-766
-63,-39,24,54,-44,-10,49,756,381,151,142,-776
-68,-34,34,54,-54,0,63,761,376,146,142,-776
-68,-29,39,49,-54,5,73,761,376,142,142,-766
-83,-34,49,59,-68,5,78,752,361,142,142,-756
-93,-44,49,68,-73,0,68,742,337,122,127,-761
-78,-34,44,59,-63,5,68,742,322,102,102,-776
-78,-34,44,59,-63,5,73,747,317,93,98,-805
-93,-39,54,68,-73,5,68,752,298,83,88,-820
-102,-59,44,83,-73,-10,59,732,283,59,68,-825
-102,-63,39,83,-73,-15,49,717,259,44,49,-830
-102,-68,34,88,-68,-20,39,708,239,29,39,-834
-102,-73,29,88,-68,-24,39,688,229,29,24,-844
-102,-73,29,88,-68,-24,24,688,210,20,15,-869
-107,-73,34,93,-73,-20,29,693,205,15,5,-878
-107,-73,34,93,-73,-20,29,693,200,5,0,-878
-107,-63,44,88,-78,-10,24,683,195,-5,-10,-869
-83,-68,15,78,-49,-29,39,664,190,-5,-10,-878
-73,-59,15,68,-44,-24,44,664,181,0,-5,-878
-63,-29,34,49,-49,0,63,669,181,5,0,-874
-54,-5,49,29,-54,20,78,669,190,10,5,-864
-68,-39,29,54,-49,-5,78,649,166,-5,-5,-874
-83,-49,34,68,-59,-10,73,634,156,-20,-24,-893
-98,-54,44,78,-73,-5,73,630,151,-24,-34,-893
-122,-54,68,88,-98,5,83,625,151,-24,-39,-893
-117,-44,73,83,-98,15,98,630,166,-20,-29,-883
-137,-34,102,88,-122,34,98,630,166,-5,-15,-898
-122,-49,73,88,-98,10,98,630,142,0,-10,-908
-102,-29,73,68,-88,20,107,634,142,-5,-15,-898
-83,-10,73,49,-78,29,98,620,127,-20,-24,-898
-68,-20,49,44,-59,15,88,590,107,-39,-44,-932
-34,-20,15,29,-24,-5,83,576,107,-39,-44,-942
-10,0,10,5,-10,5,78,571,117,-20,-29,-942
-34,-10,24,24,-29,5,83,576,122,-34,-29,-961
-49,-20,29,34,-39,5,68,581,112,-34,-29,-976
-63,-24,39,44,-54,5,83,590,122,-29,-24,-976
-88,-29,59,59,-73,15,98,595,142,-20,-20,-976
-88,-39,49,63,-68,5,83,586,132,-34,-34,-996
-83,-44,39,63,-63,-5,78,576,127,-44,-39,-991
-83,-44,39,63,-63,-5,73,566,117,-49,-44,-976
-102,-49,54,78,-78,0,68,556,98,-54,-54,-966
-98,-49,49,73,-73,0,68,537,88,-49,-54,-981
-83,-34,49,59,-68,5,78,547,102,-49,-54,-1005
-78,-20,59,49,-68,20,88,547,102,-49,-54,-1039
-73,-20,54,49,-63,15,88,542,88,-49,-54,-1054
-83,-5,78,44,-83,34,88,527,93,-49,-44,-1030
-83,0,83,44,-83,39,83,522,98,-44,-39,-1015
-83,15,98,34,-93,54,88,522,102,-39,-34,-1010
-83,29,112,29,-98,68,98,522,93,-34,-29,-1005
-59,39,98,10,-78,68,78,503,98,-29,-29,-1010
-44,34,78,5,-63,54,68,488,102,-15,-24,-1005
-20,29,49,-5,-34,39,59,478,98,-39,-44,-1005
-5,29,34,-10,-20,29,44,468,83,-59,-59,-1005
-39,5,44,20,-44,24,39,454,83,-59,-59,-1005
-83,-29,54,59,-68,10,34,444,73,-49,-54,-1005
-122,-59,63,93,-93,0,29,434,63,-39,-49,-1010
-142,-73,68,107,-107,-5,24,425,59,-39,-49,-1015
-142,-68,73,107,-107,0,34,425,59,-34,-54,-1025
-122,-73,49,98,-88,-15,29,425,63,-39,-44,-1030
-112,-39,73,78,-93,15,29,425,73,-44,-44,-1035
-112,-29,83,73,-98,24,29,425,78,-54,-49,-1035
-88,-15,73,54,-83,29,29,410,68,-54,-54,-1030
-49,-24,24,39,-39,0,20,400,73,-54,-54,-1030
-49,-20,29,34,-39,5,5,390,63,-54,-54,-1030
-44,-34,10,39,-29,-15,10,381,54,-54,-49,-1049
-44,-5,39,24,-44,15,34,386,44,-59,-54,-1044
-107,-39,68,73,-88,15,59,400,59,-49,-49,-1044
-122,-49,73,88,-98,10,68,420,68,-49,-49,-1044
-127,-49,78,88,-102,15,68,429,68,-49,-49,-1044
-132,-49,83,93,-107,15,68,439,68,-49,-49,-1044
-137,-49,88,93,-112,20,68,449,68,-49,-49,-1044
-137,-29,107,83,-122,39,78,459,68,-39,-39,-1059
-117,-20,98,68,-107,39,88,464,73,-29,-29,-1059
-83,0,83,44,-83,39,107,468,78,-20,-24,-1064
-54,24,78,15,-68,49,117,478,93,-15,-20,-1069
-73,5,78,34,-78,39,107,473,93,-15,-20,-1078
-88,-20,68,54,-78,24,112,483,93,-15,-20,-1078
-112,-20,93,68,-102,34,112,483,93,-15,-20,-1078
-122,-10,112,68,-117,49,112,488,93,-24,-20,-1078
-137,-10,127,73,-132,59,117,478,98,-24,-24,-1074
-137,-10,127,73,-132,59,132,483,102,-20,-24,-1074
-132,5,137,63,-137,68,137,488,107,-15,-20,-1064
-132,-5,127,68,-132,59,137,488,117,-15,-20,-1074
-107,-5,102,59,-107,49,142,473,117,-10,-10,-1083
-88,5,93,44,-93,49,151,473,117,-5,-5,-1088
-78,-5,73,44,-78,34,156,473,112,0,0,-1088
-83,-20,63,54,-73,20,142,468,107,0,0,-1088
-107,-20,88,63,-98,34,151,468,107,0,-10,-1103
-93,-10,83,54,-88,34,151,468,112,0,0,-1103
-83,-10,73,49,-78,29,151,464,117,10,0,-1098
-83,-10,73,49,-78,29,151,454,117,0,-5,-1098
-68,20,88,24,-78,54,166,454,107,0,-5,-1088
-59,29,88,15,-73,59,185,454,112,10,5,-1098
-44,39,83,5,-63,59,190,454,112,10,5,-1098
-29,44,73,-5,-54,59,205,449,102,0,-5,-1118
-63,10,73,29,-68,39,205,449,93,-5,-15,-1127
-93,0,93,49,-93,44,200,449,93,-10,-15,-1122
-78,-5,73,44,-78,34,195,449,93,-15,-15,-1122
-73,0,73,39,-73,34,185,454,93,-15,-10,-1103
-83,20,102,34,-93,59,205,473,98,5,0,-1103
-112,10,122,54,-117,63,210,478,102,15,10,-1103
-127,0,127,63,-127,63,224,478,107,-10,-5,-1122
-127,10,137,59,-132,73,239,488,112,-10,-5,-1122
-88,39,127,24,-107,83,244,478,98,0,-10,-1127
-59,49,107,5,-83,78,249,478,88,-5,-15,-1118
-49,49,98,0,-73,73,264,473,78,-15,-20,-1127
-54,34,88,10,-73,59,249,468,68,-20,-24,-1127
-68,44,112,15,-93,78,268,488,78,-20,-20,-1132
-68,49,117,10,-93,83,273,493,78,-20,-15,-1127
-63,49,112,10,-88,78,273,498,78,-29,-15,-1122
-68,49,117,10,-93,83,259,503,73,-29,-24,-1118
-78,49,127,15,-102,88,264,478,59,-44,-44,-1137
-83,39,122,24,-102,78,254,459,49,-49,-54,-1147
-107,15,122,49,-117,68,239,444,39,-59,-59,-1166
-117,-5,112,63,-117,54,224,420,29,-63,-68,-1176
-127,0,127,63,-127,63,234,444,39,-49,-49,-1161
-117,20,137,49,-127,78,234,449,54,-39,-39,-1152
-102,29,132,39,-117,78,229,449,63,-39,-34,-1147
-83,34,117,24,-102,73,224,449,63,-34,-29,-1152
-107,5,112,54,-112,59,195,449,54,-54,-44,-1171
-107,0,107,54,-107,54,181,449,49,-59,-54,-1171
-102,5,107,49,-107,54,166,444,39,-68,-68,-1181
-102,5,107,49,-107,54,151,444,29,-78,-83,-1191
-102,24,127,39,-117,73,151,459,34,-63,-68,-1191
-98,15,112,44,-107,63,142,464,39,-59,-63,-1196
-112,-5,107,59,-112,49,132,454,29,-68,-73,-1200
-127,-24,102,78,-117,39,132,459,34,-63,-68,-1200
-132,-20,112,78,-122,44,132,459,24,-73,-73,-1205
-117,0,117,59,-117,59,127,459,24,-83,-78,-1215
-102,0,102,54,-102,49,117,464,24,-93,-83,-1225
-98,0,98,49,-98,49,112,464,20,-98,-83,-1235
-93,5,98,44,-98,49,122,449,29,-88,-83,-1235
-83,20,102,34,-93,59,132,444,29,-88,-83,-1235
-73,24,98,24,-88,59,142,439,29,-78,-78,-1235
-78,24,102,29,-93,63,151,425,29,-78,-78,-1235
-112,15,127,49,-122,68,161,415,39,-73,-78,-1244
-127,20,146,54,-137,83,171,415,39,-73,-78,-1254
-117,39,156,39,-137,98,190,429,44,-73,-73,-1254
-132,59,190,39,-161,122,200,429,54,-68,-73,-1254
-93,102,195,-5,-146,146,249,449,78,-49,-44,-1240
-63,83,146,-10,-107,112,234,425,68,-59,-54,-1259
-102,68,171,20,-137,117,215,386,44,-63,-63,-1249
-137,63,200,39,-171,132,205,342,24,-34,-39,-1220
-117,107,224,5,-171,166,190,337,39,44,39,-1176
-68,161,229,-44,-151,195,161,322,59,161,151,-1093
-59,205,264,-73,-161,234,122,264,34,244,234,-1015
-59,254,312,-98,-185,283,88,190,-10,303,298,-932
-39,283,322,-122,-181,303,73,171,-5,395,400,-830
-63,283,346,-107,-205,312,54,181,44,532,542,-732
-68,303,371,-117,-220,337,44,200,102,673,673,-639
-5,376,381,-185,-195,376,54,234,166,805,805,-547
20,381,361,-200,-171,371,73,273,224,908,898,-454
-15,342,356,-161,-185,346,78,317,278,956,952,-410
-15,337,351,-161,-185,342,107,371,322,937,932,-400
-20,342,361,-161,-190,351,151,429,356,825,815,-425
-34,327,361,-146,-200,342,181,493,381,659,659,-468
-63,288,351,-112,-210,317,171,512,390,498,498,-542
-112,190,303,-39,-210,244,146,537,420,386,390,-639
-102,146,249,-20,-176,195,166,649,508,327,337,-712
-68,151,220,-39,-146,185,171,737,600,254,249,-825
-107,122,229,-5,-171,176,166,771,644,107,107,-961
-195,49,244,73,-220,146,176,820,693,-24,-34,-1113
-166,34,200,68,-185,117,220,908,781,-54,-59,-1249
-73,24,98,24,-88,59,249,1005,878,-49,-54,-1342
-83,-20,63,54,-73,20,283,1108,952,-112,-107,-1444
-112,-59,54,88,-83,-5,322,1230,1044,-185,-181,-1537
-122,-102,20,112,-73,-44,371,1352,1064,-259,-239,-1606
-156,-146,10,151,-83,-68,429,1420,961,-366,-356,-1640
-181,-156,24,171,-102,-68,483,1454,786,-508,-498,-1649
-200,-151,49,176,-127,-54,512,1459,590,-595,-590,-1649
-244,-171,73,210,-161,-49,542,1498,498,-586,-590,-1635
-254,-166,88,210,-171,-39,590,1542,439,-586,-581,-1620
-195,-127,68,161,-132,-29,625,1503,307,-615,-610,-1630
-137,-88,49,112,-93,-20,630,1454,185,-630,-625,-1630
-142,-88,54,117,-98,-20,649,1459,132,-600,-600,-1615
-190,-88,102,142,-146,5,673,1484,112,-581,-581,-1591
-176,-39,137,107,-156,49,678,1420,63,-586,-581,-1571
-176,-34,142,107,-161,54,649,1279,5,-600,-595,-1571
-229,-68,161,151,-195,44,625,1137,-39,-586,-586,-1576
-200,-39,161,122,-181,59,615,947,-93,-556,-556,-1557
-93,20,112,39,-102,63,581,732,-166,-522,-527,-1542
-127,15,142,59,-137,78,547,556,-195,-468,-473,-1513
-264,-15,249,142,-259,117,517,410,-200,-405,-405,-1474
-283,-20,264,151,-273,122,439,273,-224,-356,-366,-1464
-195,10,205,93,-200,107,356,171,-249,-337,-342,-1474
-166,63,229,54,-200,146,317,132,-249,-303,-303,-1459
-146,98,244,24,-195,171,278,117,-224,-264,-259,-1435
-122,49,171,39,-146,107,220,98,-234,-254,-249,-1435
-112,20,132,49,-122,73,171,63,-264,-273,-264,-1444
-102,49,151,29,-127,98,127,49,-278,-268,-268,-1444
-88,83,171,5,-132,127,107,112,-224,-210,-215,-1410
-102,83,185,10,-146,132,73,156,-190,-171,-176,-1391
-166,24,190,73,-181,107,5,137,-205,-185,-190,-1425
-224,-39,185,132,-205,73,-59,137,-200,-181,-185,-1459
-176,-39,137,107,-156,49,-102,181,-142,-146,-146,-1459
-83,10,93,39,-88,49,-161,210,-107,-122,-127,-1454
-54,78,132,-10,-93,102,-185,229,-88,-98,-98,-1425
-78,88,166,-5,-122,127,-171,273,-39,-49,-49,-1371
-83,39,122,24,-102,78,-205,273,-44,-54,-54,-1376
-93,20,112,39,-102,63,-215,273,-44,-54,-54,-1381
-107,-10,98,59,-102,44,-215,273,-49,-54,-49,-1391
-127,-39,88,83,-107,24,-229,273,-54,-54,-49,-1396
-117,-10,107,63,-112,49,-254,273,-54,-54,-49,-1401
-102,5,107,49,-107,54,-234,283,-54,-49,-44,-1401
-93,0,93,49,-93,44,-234,273,-54,-44,-44,-1405
-83,-10,73,49,-78,29,-249,268,-54,-39,-39,-1420
-93,0,93,49,-93,44,-244,273,-49,-34,-29,-1410
-93,5,98,44,-98,49,-239,283,-44,-20,-15,-1410
-93,10,102,44,-98,54,-239,288,-29,-20,-15,-1420
-93,10,102,44,-98,54,-234,288,-24,-20,-20,-1420
-112,5,117,54,-117,59,-220,293,-5,-10,-5,-1410
-112,10,122,54,-117,63,-220,312,0,0,0,-1410
-78,29,107,24,-93,68,-220,327,5,10,10,-1410
-68,44,112,15,-93,78,-224,332,24,20,15,-1410
-63,24,88,20,-78,54,-215,307,5,24,29,-1420
-68,5,73,34,-73,39,-215,303,0,20,24,-1425
-63,0,63,34,-63,29,-229,298,0,15,10,-1430
-68,-5,63,39,-68,29,-229,293,5,20,20,-1435
-73,-5,68,39,-73,29,-220,317,15,34,39,-1425
-78,5,83,39,-83,44,-215,327,24,34,39,-1415
-83,10,93,39,-88,49,-229,327,24,34,34,-1420
-78,10,88,34,-83,49,-249,322,24,44,34,-1440
-102,5,107,49,-107,54,-259,317,20,54,44,-1454
-122,-20,102,73,-112,39,-259,322,20,54,49,-1454
-127,-24,102,78,-117,39,-244,346,20,54,54,-1444
-127,-29,98,78,-112,34,-229,361,20,73,63,-1410
-132,0,132,68,-132,63,-229,361,44,88,88,-1435
-132,0,132,68,-132,63,-244,346,59,93,88,-1440
-98,-5,93,54,-98,44,-244,361,44,107,102,-1440
-98,-5,93,54,-98,44,-239,371,63,107,102,-1440
-93,-5,88,49,-93,39,-254,366,54,112,102,-1449
-93,-5,88,49,-93,39,-268,381,49,117,112,-1444
-98,-5,93,54,-98,44,-273,381,63,122,117,-1440
-112,-10,102,63,-107,44,-268,376,49,127,127,-1440
-98,0,98,49,-98,49,-273,376,59,127,117,-1444
-83,10,93,39,-88,49,-254,381,63,137,132,-1440
-68,15,83,29,-78,49,-254,381,63,142,137,-1440
-54,15,68,20,-63,39,-244,381,63,142,146,-1444
-68,10,78,29,-73,44,-244,371,63,161,156,-1444
-73,15,88,29,-83,49,-254,376,73,171,171,-1449
-78,-5,73,44,-78,34,-293,376,73,171,171,-1459
-83,-10,73,49,-78,29,-298,371,63,176,181,-1464
-83,-10,73,49,-78,29,-298,356,68,181,181,-1459
-93,-5,88,49,-93,39,-288,356,63,185,181,-1449
-102,-5,98,54,-102,44,-298,351,73,195,195,-1449
-112,-5,107,59,-112,49,-307,342,68,210,205,-1444
-102,10,112,49,-107,59,-317,332,68,234,229,-1440
-98,5,102,49,-102,54,-361,322,44,244,239,-1440
-93,0,93,49,-93,44,-361,307,54,234,224,-1440
-83,15,98,34,-93,54,-371,317,73,234,234,-1440
-78,20,98,29,-88,59,-390,327,68,259,264,-1440
-78,34,112,24,-98,73,-400,327,73,268,264,-1440
-63,20,83,24,-73,49,-415,327,68,259,254,-1430
-63,20,83,24,-73,49,-425,327,73,259,254,-1425
-54,0,54,29,-54,24,-434,312,73,254,244,-1444
-54,-10,44,34,-49,15,-449,298,63,244,239,-1444
-59,-29,29,44,-44,0,-464,283,59,239,249,-1435
-73,-49,24,63,-49,-15,-483,268,54,229,234,-1435
-73,-59,15,68,-44,-24,-503,268,54,220,229,-1054
-68,-59,10,63,-39,-24,-517,264,49,220,224,-678
-63,-44,20,54,-44,-15,-522,259,49,215,215,-307
-59,-39,20,49,-39,-10,-532,254,59,200,200,73
-78,-39,39,59,-59,0,-527,264,54,205,205,234
-88,-39,49,63,-68,5,-532,268,54,190,185,366
-83,-39,44,63,-63,0,-527,244,68,181,176,503
-112,-49,63,83,-88,5,-522,273,88,166,161,644
-132,-59,73,98,-102,5,-537,283,78,161,156,664
-117,-54,63,88,-93,5,-547,288,73,151,146,683
-112,-63,49,88,-83,-10,-556,278,73,137,132,703
-107,-73,34,93,-73,-20,-566,268,78,117,117,717
-102,-59,44,83,-73,-10,-576,273,83,98,93,708
-112,-44,68,78,-93,10,-566,288,107,93,88,708
-107,-44,63,78,-88,10,-561,303,112,78,78,708
-122,-59,63,93,-93,0,-561,312,107,59,68,703
-122,-63,59,93,-93,-5,-551,322,117,59,63,703
-122,-63,59,93,-93,-5,-537,332,127,59,59,693
-107,-63,44,88,-78,-10,-532,346,132,54,59,703
-107,-49,59,78,-83,5,-527,346,132,54,59,717
-146,-78,68,112,-107,-5,-537,356,122,39,44,717
-190,-102,88,146,-142,-10,-532,356,127,24,29,717
-210,-132,78,171,-146,-29,-527,346,127,10,10,688
-239,-161,78,200,-161,-44,-522,337,117,-20,-15,649
-220,-127,93,176,-156,-20,-493,361,137,-5,-5,649
-215,-102,112,161,-166,5,-473,381,142,0,5,659
-205,-78,127,142,-166,24,-459,395,151,5,15,678
-210,-63,146,137,-181,39,-449,400,146,15,24,698
-210,-68,142,142,-176,34,-444,381,132,20,15,698
-195,-63,132,132,-166,34,-439,371,117,5,-5,698
-195,-68,127,132,-161,29,-429,366,112,0,-5,683
-210,-78,132,146,-171,24,-429,361,93,-5,-10,683
-210,-78,132,146,-171,24,-420,351,93,-20,-24,678
-210,-73,137,142,-176,29,-420,337,73,-34,-39,673
-210,-68,142,142,-176,34,-420,327,59,-49,-44,669
-210,-63,146,137,-181,39,-410,307,54,-49,-54,659
-229,-73,156,151,-195,39,-410,312,49,-39,-49,654
-234,-73,161,156,-200,44,-400,322,49,-34,-44,654
-234,-73,161,156,-200,44,-395,327,49,-34,-34,664
-234,-63,171,151,-205,54,-395,322,49,-34,-29,683
-224,-63,161,146,-195,49,-400,312,39,-34,-24,688
-220,-59,161,142,-190,49,-405,312,34,-29,-24,693
-215,-34,181,127,-200,73,-395,317,39,-24,-24,703
-210,-15,195,112,-205,88,-390,317,54,-20,-24,717
-220,-49,171,137,-195,59,-410,298,20,-44,-39,698
-229,-68,161,151,-195,44,-415,273,0,-68,-63,669
-239,-83,156,161,-200,34,-415,259,-15,-83,-78,659
-259,-93,166,176,-215,34,-405,244,-24,-93,-88,649
-254,-78,176,166,-215,49,-376,239,-5,-78,-73,678
-283,-63,220,176,-254,78,-361,239,0,-54,-54,683
-278,-73,205,176,-244,63,-346,239,-20,-39,-44,693
-268,-49,220,161,-244,83,-322,244,-15,-34,-44,722
-254,-54,200,156,-229,73,-332,229,-34,-63,-59,722
-244,-68,176,156,-210,54,-351,200,-59,-88,-83,688
-215,-73,142,146,-181,34,-366,185,-63,-93,-88,678
-195,-59,137,127,-166,39,-381,181,-59,-78,-78,678
-205,-59,146,132,-176,44,-390,190,-59,-88,-83,683
-215,-68,146,142,-181,39,-410,190,-73,-83,-78,683
-224,-73,151,151,-190,39,-400,195,-68,-73,-68,698
-244,-78,166,161,-205,44,-390,195,-54,-59,-59,712
-244,-78,166,161,-205,44,-420,195,-68,-73,-73,693
-239,-83,156,161,-200,34,-439,195,-68,-83,-78,698
-239,-83,156,161,-200,34,-459,195,-73,-88,-83,712
-259,-88,171,176,-215,39,-478,195,-88,-93,-93,722
-239,-107,132,176,-185,10,-468,195,-93,-102,-98,712
-220,-93,127,156,-176,15,-459,205,-83,-107,-102,693
-210,-78,132,146,-171,24,-449,205,-88,-112,-107,664
-200,-78,122,142,-161,20,-449,200,-107,-117,-112,654
-190,-63,127,127,-161,29,-444,205,-98,-107,-112,673
-190,-68,122,132,-156,24,-454,210,-88,-102,-107,693
-190,-63,127,127,-161,29,-454,220,-78,-98,-102,703
-190,-59,132,127,-161,34,-449,229,-83,-93,-98,712
-181,-39,142,112,-161,49,-468,239,-73,-102,-112,693
-254,-98,156,176,-205,29,-478,224,-88,-127,-117,693
-259,-107,151,185,-205,20,-493,220,-98,-132,-122,683
-264,-117,146,190,-205,15,-498,215,-107,-137,-127,673
-268,-127,142,200,-205,5,-503,210,-117,-142,-132,664
-273,-137,137,205,-205,0,-508,205,-127,-146,-137,654
-254,-132,122,195,-190,-5,-517,190,-142,-151,-151,639
-224,-127,98,176,-161,-15,-517,181,-142,-146,-146,639
-181,-112,68,146,-127,-24,-508,171,-142,-142,-146,634
-142,-93,49,117,-98,-24,-508,166,-132,-142,-146,630
-146,-93,54,122,-102,-20,-508,171,-142,-151,-146,630
-156,-107,49,132,-102,-29,-503,181,-142,-151,-146,630
-176,-98,78,137,-127,-10,-503,181,-142,-151,-146,630
-181,-78,102,132,-142,10,-503,185,-142,-161,-146,630
-176,-88,88,132,-132,0,-498,171,-142,-156,-146,634
-176,-88,88,132,-132,0,-483,171,-142,-146,-142,634
-171,-73,98,122,-137,10,-478,171,-142,-137,-132,644
-171,-83,88,127,-132,0,-478,166,-137,-132,-127,634
-181,-93,88,137,-137,-5,-478,161,-137,-127,-127,615
-176,-93,83,137,-132,-5,-473,161,-137,-122,-122,610
-181,-112,68,146,-127,-24,-473,161,-142,-117,-117,610
-200,-137,63,171,-132,-39,-493,156,-146,-117,-117,610
-205,-117,88,161,-146,-15,-473,166,-156,-127,-117,595
-181,-98,83,142,-132,-10,-473,176,-151,-127,-107,595
-161,-88,73,127,-117,-10,-473,181,-146,-117,-107,600
-151,-78,73,117,-112,-5,-473,181,-146,-127,-112,600
-181,-78,102,132,-142,10,-464,190,-132,-122,-112,620
-195,-78,117,137,-156,20,-439,200,-122,-98,-93,620
-205,-78,127,142,-166,24,-429,210,-117,-83,-83,630
-215,-83,132,151,-176,24,-410,215,-122,-78,-83,620
-195,-83,112,142,-156,15,-410,215,-132,-78,-73,620
-181,-68,112,127,-146,20,-415,215,-132,-78,-73,625
-122,-49,73,88,-98,10,-420,215,-132,-78,-73,625
-73,-20,54,49,-63,15,-429,220,-132,-73,-68,644
-107,-34,73,73,-93,20,-425,210,-142,-68,-73,639
-142,-68,73,107,-107,0,-434,205,-142,-63,-68,634
-161,-102,59,132,-112,-24,-434,195,-142,-93,-88,610
-166,-117,49,142,-107,-34,-434,195,-142,-98,-93,605
-161,-88,73,127,-117,-10,-429,205,-132,-68,-78,625
-146,-68,78,107,-112,5,-425,215,-127,-63,-73,639
-151,-59,93,107,-122,15,-410,220,-122,-63,-68,634
-171,-63,107,117,-142,20,-425,224,-117,-59,-63,639
-156,-49,107,102,-132,29,-425,229,-117,-59,-59,634
-137,-39,98,88,-117,29,-420,229,-117,-59,-54,639
-112,-34,78,73,-98,20,-420,229,-117,-68,-54,644
-98,-29,68,63,-83,20,-434,229,-122,-68,-63,649
-112,-39,73,78,-93,15,-434,220,-132,-78,-78,644
-122,-49,73,88,-98,10,-449,215,-137,-78,-83,649
-151,-73,78,112,-117,0,-468,215,-142,-83,-83,644
-166,-93,73,132,-122,-10,-488,205,-146,-83,-88,649
-146,-73,73,112,-112,0,-503,220,-142,-63,-78,659
-127,-39,88,83,-107,24,-508,224,-132,-59,-68,673
-102,-15,88,59,-98,34,-517,224,-127,-63,-63,683
-73,5,78,34,-78,39,-527,224,-132,-63,-59,683
-93,-20,73,59,-83,24,-537,220,-137,-78,-73,673
-98,-29,68,63,-83,20,-542,215,-137,-78,-73,683
-98,-29,68,63,-83,20,-547,205,-142,-83,-78,683
-102,-34,68,68,-88,15,-551,200,-146,-88,-83,683
-98,-24,73,63,-88,24,-551,210,-156,-78,-83,673
-88,-34,54,63,-73,10,-561,210,-156,-78,-83,669
-98,-54,44,78,-73,-5,-571,195,-171,-93,-98,664
-107,-73,34,93,-73,-20,-571,195,-171,-93,-98,664
-112,-68,44,93,-78,-15,-556,205,-176,-98,-93,659
-98,-49,49,73,-73,0,-556,205,-171,-102,-98,649
-83,-49,34,68,-59,-10,-561,210,-166,-107,-102,639
-78,-49,29,63,-54,-10,-561,210,-166,-107,-102,630
-73,-34,39,54,-59,0,-551,224,-156,-98,-102,634
-73,-10,63,44,-68,24,-542,229,-156,-98,-102,639
-73,5,78,34,-78,39,-532,234,-156,-88,-98,644
-88,15,102,39,-98,59,-522,229,-156,-88,-98,649
-98,-10,88,54,-93,39,-532,229,-166,-98,-107,639
-88,-10,78,49,-83,34,-532,229,-166,-102,-107,630
-54,5,59,24,-59,29,-522,244,-161,-107,-102,630
-44,20,63,15,-54,39,-522,244,-151,-107,-102,630
-73,15,88,29,-83,49,-483,273,-127,-98,-93,644
-73,73,146,0,-112,107,-449,288,-117,-78,-83,664
-63,29,93,20,-78,59,-478,249,-142,-112,-112,615
-68,-44,24,59,-49,-10,-508,215,-171,-151,-146,566
-88,0,88,44,-88,44,-483,229,-156,-122,-117,571
-68,73,142,0,-107,107,-483,224,-156,-83,-83,595
-88,29,117,29,-102,73,-542,166,-190,-78,-78,595
-146,0,146,73,-146,73,-566,142,-185,0,-5,639
-98,127,224,-15,-161,176,-561,161,-132,151,146,742
24,264,239,-142,-107,249,-590,112,-132,268,259,839
29,283,254,-156,-112,268,-649,34,-171,322,322,922
-44,288,332,-122,-190,307,-659,0,-156,434,434,1015
-20,342,361,-161,-190,351,-649,29,-78,586,586,1108
24,371,346,-195,-161,356,-644,73,5,722,717,1200
24,376,351,-200,-166,361,-634,127,78,830,834,1308
29,390,361,-210,-166,376,-620,176,142,903,903,1401
54,376,322,-215,-137,346,-630,200,156,893,893,1425
83,356,273,-220,-98,312,-600,249,166,791,781,1401
34,356,322,-195,-146,337,-527,351,224,600,595,1381
-54,303,356,-122,-205,327,-488,405,264,395,395,1327
-59,239,298,-88,-181,268,-473,386,288,254,259,1225
-59,200,259,-68,-161,229,-410,361,351,185,185,1127
-107,166,273,-29,-190,220,-312,400,449,122,122,1005
-156,142,298,10,-229,220,-239,488,527,15,20,878
-161,83,244,39,-205,161,-229,508,527,-156,-151,727
-161,-20,142,93,-151,59,-224,493,512,-346,-342,527
-142,-98,44,122,-93,-29,-156,586,566,-400,-395,405
-83,-83,0,83,-44,-44,-49,766,673,-405,-415,346
-20,-78,-59,49,20,-68,20,913,717,-473,-483,273
-54,-156,-102,107,24,-132,44,1005,649,-576,-576,185
-161,-249,-88,205,-39,-171,83,1078,493,-664,-659,127
-215,-249,-34,234,-93,-142,151,1118,303,-752,-756,132
-224,-234,-10,229,-107,-122,210,1132,127,-791,-795,146
-205,-215,-10,210,-98,-112,244,1161,54,-752,-747,166
-156,-137,20,146,-88,-59,278,1191,-10,-717,-722,166
-161,-117,44,142,-102,-39,298,1157,-112,-737,-747,161
-210,-146,63,181,-137,-44,322,1103,-200,-737,-747,176
-224,-137,88,181,-156,-24,356,1098,-229,-693,-698,224
-244,-112,132,181,-190,10,405,1122,-239,-659,-664,273
-210,-68,142,142,-176,34,410,1069,-264,-654,-654,268
-112,-49,63,83,-88,5,381,927,-307,-664,-664,239
-63,-39,24,54,-44,-10,337,771,-342,-639,-644,244
-156,-44,112,102,-137,34,312,595,-361,-576,-590,273
-234,-83,151,161,-195,34,264,381,-405,-542,-542,293
-205,-59,146,132,-176,44,195,176,-439,-512,-512,303
-185,-20,166,102,-176,73,122,15,-464,-454,-459,322
-215,-15,200,117,-210,93,63,-93,-483,-420,-429,346
-224,-10,215,117,-220,102,15,-146,-498,-400,-405,361
-161,20,181,73,-171,98,-34,-146,-468,-361,-366,381
-93,68,161,15,-127,112,-54,-122,-420,-312,-312,420
-83,59,142,15,-112,98,-88,-98,-395,-288,-278,429
-137,5,142,68,-142,73,-137,-122,-420,-298,-293,415
-132,-5,127,68,-132,59,-200,-146,-444,-307,-303,386
-88,15,102,39,-98,59,-249,-127,-420,-283,-288,390
-146,20,166,63,-156,93,-283,-78,-366,-239,-234,425
-273,-10,264,142,-268,127,-317,-44,-337,-195,-195,464
-239,-10,229,127,-234,107,-386,-34,-322,-181,-185,468
-93,39,132,29,-112,83,-429,-5,-303,-166,-166,468
-59,68,127,-5,-93,98,-454,29,-254,-117,-117,503
-63,39,102,15,-83,68,-493,34,-249,-102,-102,493
-73,29,102,24,-88,63,-508,39,-239,-102,-102,493
-88,10,98,39,-93,54,-512,44,-234,-102,-98,488
-107,-10,98,59,-102,44,-532,49,-229,-102,-98,488
-117,15,132,54,-127,73,-547,59,-234,-93,-98,488
-122,24,146,49,-137,83,-527,68,-229,-88,-93,493
-132,15,146,59,-142,78,-527,59,-224,-83,-93,493
-142,0,142,73,-142,68,-542,54,-220,-78,-88,483
-142,-5,137,73,-142,63,-561,39,-224,-88,-83,503
-132,-5,127,68,-132,59,-571,39,-229,-78,-73,503
-122,-5,117,63,-122,54,-586,34,-224,-83,-78,493
-112,-10,102,63,-107,44,-595,24,-229,-88,-88,493
-112,5,117,54,-117,59,-586,39,-210,-68,-68,508
-102,20,122,44,-112,68,-581,59,-205,-59,-59,512
-59,49,107,5,-83,78,-576,73,-200,-49,-44,517
-39,73,112,-15,-78,93,-576,78,-181,-39,-34,522
-63,34,98,15,-83,63,-581,54,-210,-49,-29,498
-78,5,83,39,-83,44,-586,39,-224,-59,-44,488
-83,-10,73,49,-78,29,-605,24,-234,-68,-68,478
-98,-24,73,63,-88,24,-610,10,-239,-68,-68,468
-78,-5,73,44,-78,34,-581,34,-205,-44,-39,493
-78,15,93,34,-88,54,-566,44,-190,-34,-29,517
-78,29,107,24,-93,68,-571,44,-185,-24,-24,527
-68,39,107,15,-88,73,-581,39,-181,-5,-15,522
-93,24,117,34,-107,68,-571,24,-181,-5,-15,508
-112,0,112,59,-112,54,-571,29,-176,-5,-10,508
-117,-5,112,63,-117,54,-556,54,-171,-5,-5,517
-117,-10,107,63,-112,49,-542,68,-166,15,5,551
-127,-10,117,68,-122,54,-532,49,-161,5,5,517
-132,-20,112,78,-122,44,-547,34,-156,5,0,512
-102,-34,68,68,-88,15,-547,49,-181,15,10,512
-107,-44,63,78,-88,10,-542,59,-171,10,5,512
-78,-20,59,49,-68,20,-537,68,-151,29,15,522
-63,-5,59,34,-63,24,-542,88,-146,39,34,527
-54,10,63,24,-59,34,-537,93,-122,49,49,532
-54,20,73,20,-63,44,-522,93,-127,59,68,532
-54,39,93,10,-73,63,-532,93,-117,54,59,532
-54,49,102,5,-78,73,-517,98,-112,68,73,542
-54,54,107,0,-83,78,-522,98,-112,78,78,547
-54,54,107,0,-83,78,-517,98,-112,83,88,547
-54,29,83,15,-68,54,-542,83,-122,93,93,537
-54,15,68,20,-63,39,-566,83,-122,93,93,522
-54,-24,29,39,-44,0,-620,78,-132,83,78,503
-54,-49,5,54,-29,-24,-639,68,-151,78,73,488
-24,-20,5,24,-15,-10,-630,83,-122,112,102,512
-24,5,29,10,-29,15,-620,102,-102,137,122,532
-24,24,49,0,-39,34,-630,117,-68,166,156,542
-24,44,68,-10,-49,54,-639,127,-49,200,185,556
-44,29,73,10,-59,49,-649,122,-49,210,205,551
-59,5,63,29,-63,34,-703,107,-83,215,210,551
-73,-20,54,49,-63,15,-712,88,-83,200,190,551
-83,-24,59,54,-73,15,-732,93,-73,195,195,551
-63,-10,54,39,-59,20,-747,107,-83,210,215,551
-49,5,54,24,-54,29,-752,102,-83,220,215,542
-20,-10,10,15,-15,0,-761,98,-93,210,205,542
-5,-10,-5,10,0,-10,-766,93,-93,210,205,537
20,5,-15,-10,15,-5,-771,83,-83,220,215,527
34,20,-15,-24,24,0,-781,83,-83,224,220,527
44,24,-20,-34,29,0,-791,83,-78,234,239,537
44,29,-15,-34,29,5,-805,83,-73,239,234,537
20,29,10,-24,5,20,-810,102,-68,254,249,537
10,29,20,-20,-5,24,-820,107,-68,259,254,532
0,44,44,-20,-24,44,-820,112,-63,259,254,522
-10,49,59,-20,-34,54,-825,117,-49,249,249,522
5,39,34,-20,-15,34,-820,112,-73,234,234,527
10,39,29,-24,-10,34,-825,112,-73,220,215,512
29,39,10,-34,10,24,-820,83,-59,210,205,503
15,29,15,-20,0,20,-815,107,-39,195,190,498
-15,24,39,-5,-29,29,-805,117,-49,185,181,508
-10,34,44,-10,-29,39,-800,132,-54,181,176,508
-15,29,44,-5,-29,34,-795,132,-54,171,166,508
-20,24,44,0,-34,34,-791,132,-49,156,156,503
-29,24,54,5,-44,39,-800,132,-63,132,132,488
-44,34,78,5,-63,54,-791,142,-49,122,117,483
-44,29,73,10,-59,49,-786,151,-54,102,98,478
-63,10,73,29,-68,39,-786,156,-68,78,78,468
-49,15,63,20,-59,39,-766,166,-54,63,68,473
-34,34,68,0,-54,49,-742,185,-39,59,59,459
-5,54,59,-24,-34,54,-727,210,-29,49,54,464
10,88,78,-49,-34,83,-712,220,-24,44,49,473
10,73,63,-39,-29,68,-712,224,-39,29,34,478
-5,73,78,-34,-44,73,-708,229,-39,15,20,473
5,68,63,-34,-29,63,-703,224,-44,0,0,439
5,63,59,-34,-29,59,-698,220,-59,-29,-24,395
-5,54,59,-24,-34,54,-693,224,-68,-44,-39,386
-10,44,54,-15,-34,49,-678,224,-73,-49,-44,376
-10,34,44,-10,-29,39,-669,220,-73,-54,-49,376
-24,15,39,5,-34,24,-664,205,-88,-54,-54,376
-39,15,54,15,-49,34,-649,200,-93,-68,-63,376
-39,24,63,10,-54,44,-634,205,-98,-83,-83,376
-54,24,78,15,-68,49,-615,215,-93,-88,-83,361
-83,20,102,34,-93,59,-605,224,-102,-93,-88,361
-59,20,78,20,-68,49,-595,210,-112,-102,-93,361
-44,24,68,10,-59,44,-595,190,-132,-112,-107,361
-29,29,59,0,-44,44,-595,176,-146,-122,-112,361
-15,34,49,-10,-34,39,-586,151,-151,-117,-122,356
-39,15,54,15,-49,34,-586,137,-166,-132,-142,317
-59,5,63,29,-63,34,-576,137,-176,-142,-151,303
-73,-5,68,39,-73,29,-571,132,-185,-156,-156,298
-88,-5,83,49,-88,39,-571,117,-195,-171,-166,303
-68,-10,59,39,-63,24,-581,98,-200,-166,-171,303
-63,0,63,34,-63,29,-581,98,-210,-166,-171,303
-59,29,88,15,-73,59,-566,102,-210,-166,-171,307
-54,54,107,0,-83,78,-556,102,-200,-166,-171,317
-44,39,83,5,-63,59,-571,102,-224,-171,-166,312
-44,39,83,5,-63,59,-581,88,-234,-185,-181,298
-44,44,88,0,-68,63,-586,83,-239,-190,-185,303
-54,54,107,0,-83,78,-581,78,-239,-190,-185,307
-78,29,107,24,-93,68,-595,68,-239,-205,-195,293
-117,5,122,59,-122,63,-605,63,-244,-200,-190,273
-122,-44,78,83,-102,15,-615,59,-273,-205,-195,259
-122,-59,63,93,-93,0,-615,59,-278,-220,-210,264
-107,-54,54,83,-83,0,-630,54,-273,-224,-220,264
-107,-68,39,88,-73,-15,-644,34,-293,-244,-239,239
-88,-73,15,83,-54,-29,-654,29,-293,-244,-239,239
-78,-59,20,68,-49,-20,-664,34,-283,-224,-224,249
-78,-39,39,59,-59,0,-654,44,-278,-234,-229,254
-78,-29,49,54,-63,10,-664,54,-288,-229,-224,254
-78,-15,63,49,-73,24,-644,68,-278,-220,-215,268
-88,0,88,44,-88,44,-625,78,-259,-205,-205,283
-98,10,107,44,-102,59,-639,78,-268,-205,-205,273
-93,5,98,44,-98,49,-644,78,-264,-210,-205,288
-93,5,98,44,-98,49,-649,78,-264,-210,-205,312
-112,0,112,59,-112,54,-654,78,-273,-210,-210,332
-98,10,107,44,-102,59,-605,73,-264,-210,-205,356
-83,34,117,24,-102,73,-556,88,-249,-205,-200,351
-78,59,137,10,-107,98,-508,93,-249,-200,-195,337
-73,68,142,5,-107,102,-468,93,-264,-195,-190,342
-68,49,117,10,-93,83,-444,88,-273,-205,-210,693
-63,29,93,20,-78,59,-434,83,-273,-210,-215,1044
-59,20,78,20,-68,49,-415,83,-273,-215,-220,1386
-54,10,63,24,-59,34,-390,83,-288,-220,-224,1728
-73,5,78,34,-78,39,-381,73,-293,-215,-215,1835
-83,-5,78,44,-83,34,-371,68,-288,-200,-210,1932
-83,-15,68,49,-78,24,-361,68,-293,-224,-229,2025
-93,-20,73,59,-83,24,-356,68,-307,-244,-244,2118
-98,-10,88,54,-93,39,-342,73,-293,-254,-244,2137
-112,-20,93,68,-102,34,-327,73,-298,-244,-239,2157
-122,-24,98,73,-112,34,-312,73,-303,-234,-234,2172
-112,-15,98,63,-107,39,-298,73,-303,-234,-234,2186
-122,-29,93,78,-107,29,-293,59,-317,-229,-244,2191
-112,-44,68,78,-93,10,-293,54,-317,-234,-239,2191
-112,-20,93,68,-102,34,-288,49,-312,-239,-244,2191
-122,-20,102,73,-112,39,-283,44,-312,-249,-254,2196
-117,-5,112,63,-117,54,-283,34,-317,-259,-259,2216
-88,-15,73,54,-83,29,-283,29,-307,-259,-259,2220
-98,-10,88,54,-93,39,-288,24,-312,-259,-259,2225
-102,-24,78,63,-93,24,-273,20,-317,-259,-254,2211
-93,-15,78,54,-88,29,-259,20,-317,-244,-249,2206
-73,0,73,39,-73,34,-249,20,-317,-239,-249,2220
-49,-10,39,29,-44,15,-215,15,-317,-229,-249,2225
-49,-15,34,34,-44,10,-195,10,-327,-239,-249,2225
-68,-20,49,44,-59,15,-185,0,-342,-249,-239,2216
-49,0,49,24,-49,24,-176,5,-337,-239,-239,2225
-29,20,49,5,-39,34,-166,10,-327,-229,-234,2235
5,24,20,-15,-10,20,-156,0,-332,-229,-234,2225
-29,5,34,15,-34,20,-137,0,-327,-220,-224,2225
-54,-5,49,29,-54,20,-127,0,-327,-220,-224,2225
-83,-15,68,49,-78,24,-117,0,-327,-220,-224,2220
-112,-24,88,68,-102,29,-102,0,-327,-220,-215,2206
-229,-98,132,166,-181,15,-93,0,-307,-215,-215,2206
-220,-98,122,161,-171,10,-93,10,-293,-205,-200,2220
-156,-29,127,93,-142,49,-68,29,-283,-176,-185,2264
-146,-24,122,88,-137,49,-68,20,-288,-190,-190,2264
-137,-20,117,78,-127,49,-68,20,-293,-195,-195,2264
-127,-15,112,73,-122,49,-68,20,-298,-200,-200,2264
-117,-10,107,63,-112,49,-68,20,-303,-205,-205,2264
-127,-15,112,73,-122,49,-78,15,-307,-220,-210,2250
-127,-20,107,73,-117,44,-78,5,-307,-215,-205,2250
-112,-15,98,63,-107,39,-68,-5,-307,-210,-205,2245
-102,-5,98,54,-102,44,-68,-10,-298,-210,-205,2240
-93,-29,63,63,-78,15,-83,-20,-312,-210,-215,2255
-98,-59,39,78,-68,-10,-93,-15,-317,-210,-215,2259
-112,-63,49,88,-83,-10,-107,-20,-322,-210,-215,2264
-112,-59,54,88,-83,-5,-122,-20,-327,-220,-215,2269
-112,-44,68,78,-93,10,-146,-10,-322,-210,-215,2274
-107,-29,78,68,-93,24,-142,-5,-317,-205,-210,2284
-98,0,98,49,-98,49,-146,0,-312,-200,-200,2303
-93,5,98,44,-98,49,-156,0,-303,-200,-195,2303
-78,15,93,34,-88,54,-161,5,-293,-190,-190,2303
-68,24,93,24,-83,59,-161,15,-293,-190,-190,2298
-68,15,83,29,-78,49,-166,24,-298,-190,-190,2298
-83,0,83,44,-83,39,-190,29,-303,-195,-195,2298
-122,-5,117,63,-122,54,-190,49,-288,-190,-190,2303
-122,0,122,63,-122,59,-190,59,-278,-185,-176,2303
-127,-5,122,68,-127,59,-190,63,-268,-171,-171,2308
-142,-10,132,78,-137,59,-190,63,-264,-176,-171,2308
-112,5,117,54,-117,59,-195,54,-268,-190,-185,2308
-88,10,98,39,-93,54,-185,54,-268,-185,-181,2298
-59,15,73,24,-68,44,-190,54,-273,-190,-185,2298
-29,15,44,10,-39,29,-185,49,-288,-205,-200,2279
-73,-20,54,49,-63,15,-195,44,-303,-220,-215,2274
-112,-29,83,73,-98,24,-200,39,-307,-224,-220,2274
-107,-34,73,73,-93,20,-205,34,-312,-229,-224,2269
-112,-29,83,73,-98,24,-215,34,-317,-229,-224,2284
-127,-29,98,78,-112,34,-210,44,-307,-229,-220,2274
-151,-49,102,102,-127,24,-220,39,-307,-220,-215,2264
-161,-68,93,117,-127,10,-220,29,-307,-244,-234,2235
-156,-68,88,112,-122,10,-220,29,-307,-244,-239,2225
-112,-24,88,68,-102,29,-200,24,-307,-220,-229,2240
-68,0,68,34,-68,34,-190,29,-312,-220,-229,2250
-44,15,59,15,-54,34,-171,29,-317,-224,-229,2240
-34,15,49,10,-44,29,-181,29,-322,-224,-229,2240
-44,20,63,15,-54,39,-171,20,-332,-220,-229,2211
-49,29,78,10,-63,54,-166,15,-332,-224,-229,2201
-49,34,83,10,-68,59,-166,10,-332,-239,-234,2191
-59,39,98,10,-78,68,-181,5,-337,-244,-249,2181
-63,59,122,5,-93,88,-146,10,-327,-239,-244,2176
-73,59,132,10,-102,93,-137,10,-322,-234,-239,2181
-102,44,146,29,-127,93,-132,15,-317,-234,-229,2176
-117,34,151,44,-137,93,-127,10,-312,-229,-224,2181
-117,20,137,49,-127,78,-132,5,-322,-239,-239,2162
-107,20,127,44,-117,73,-137,-10,-327,-244,-244,2147
-93,10,102,44,-98,54,-146,-29,-337,-259,-254,2128
-73,-5,68,39,-73,29,-156,-49,-356,-268,-264,2098
-93,-20,73,59,-83,24,-161,-54,-371,-273,-268,2069
-98,-20,78,59,-88,29,-161,-59,-371,-273,-268,2069
-98,-10,88,54,-93,39,-161,-68,-376,-278,-273,2059
-102,-5,98,54,-102,44,-161,-73,-381,-283,-278,2050
-78,20,98,29,-88,59,-146,-73,-381,-273,-278,2059
-59,15,73,24,-68,44,-142,-73,-381,-273,-278,2054
-59,0,59,29,-59,29,-137,-88,-395,-288,-293,2050
-59,-15,44,39,-54,15,-122,-88,-395,-288,-293,2050
-88,0,88,44,-88,44,-107,-73,-381,-278,-273,2045
-88,20,107,34,-98,63,-98,-68,-376,-278,-273,2035
-88,20,107,34,-98,63,-93,-59,-371,-278,-273,2025
-98,20,117,39,-107,68,-83,-54,-371,-273,-268,2015
-93,20,112,39,-102,63,-63,-54,-371,-273,-268,2006
-83,29,112,29,-98,68,-54,-54,-371,-273,-268,2006
-73,29,102,24,-88,63,-44,-54,-371,-264,-264,2006
-78,24,102,29,-93,63,-34,-63,-371,-264,-264,2006
-112,-5,107,59,-112,49,-49,-68,-386,-283,-273,1986
-117,-10,107,63,-112,49,-54,-73,-390,-288,-283,1967
-98,0,98,49,-98,49,-49,-63,-390,-293,-288,1957
-102,10,112,49,-107,59,-54,-68,-386,-293,-298,1947
-24,54,78,-15,-54,63,-44,-59,-371,-303,-307,1932
-34,44,78,-5,-59,59,-39,-54,-361,-303,-298,1923
-63,29,93,20,-78,59,-68,-73,-366,-278,-278,1903
-88,24,112,34,-102,68,-88,-98,-376,-259,-254,1932
-49,98,146,-24,-98,122,-102,-122,-371,-210,-205,1996
-29,161,190,-63,-112,176,-132,-146,-371,-112,-122,2059
-98,176,273,-39,-185,224,-161,-166,-356,0,0,2128
-98,215,312,-59,-205,264,-205,-210,-371,98,83,2211
20,312,293,-166,-137,303,-259,-259,-395,181,166,2303
63,361,298,-210,-117,327,-288,-259,-356,307,298,2391
29,371,342,-200,-156,356,-288,-220,-278,449,449,2464
34,415,381,-224,-176,395,-268,-176,-205,571,581,2567
78,429,351,-254,-137,390,-259,-146,-156,673,673,2660
102,390,288,-244,-93,337,-254,-122,-122,722,717,2723
93,346,254,-220,-83,298,-244,-78,-78,722,727,2752
39,332,293,-185,-127,312,-190,-10,-44,639,630,2738
-5,337,342,-166,-176,337,-112,83,10,473,454,2694
-24,337,361,-156,-195,346,-63,161,78,312,303,2621
-44,268,312,-112,-181,288,-78,166,59,161,156,2503
-73,166,239,-44,-156,200,-59,200,68,73,73,2372
-146,73,220,39,-185,146,24,317,190,29,34,2250
-176,15,190,83,-185,102,59,390,283,-88,-78,2123
-127,0,127,63,-127,63,68,400,273,-278,-268,1952
-107,-5,102,59,-107,49,151,468,312,-405,-400,1845
-151,-54,98,102,-127,20,239,595,410,-420,-415,1791
-181,-127,54,156,-117,-39,303,708,483,-454,-459,1698
-171,-176,-5,176,-83,-93,371,839,547,-517,-532,1606
-190,-210,-20,200,-88,-117,449,971,547,-561,-561,1557
-195,-215,-20,205,-88,-117,478,1030,444,-630,-630,1523
-142,-195,-54,171,-44,-127,503,1015,239,-742,-752,1474
-142,-171,-29,156,-59,-102,561,1010,54,-820,-815,1454
-176,-171,5,176,-93,-83,620,1059,-20,-791,-786,1498
-185,-156,29,171,-107,-63,678,1103,-59,-752,-747,1542
-166,-156,10,161,-88,-73,732,1064,-171,-791,-786,1562
-146,-137,10,142,-78,-63,747,976,-303,-815,-820,1562
-142,-98,44,122,-93,-29,756,952,-376,-805,-805,1576
-142,-68,73,107,-107,0,781,956,-405,-776,-786,1581
-146,-68,78,107,-112,5,776,903,-454,-771,-776,1581
-146,-63,83,107,-117,10,766,771,-483,-776,-781,1581
-181,-98,83,142,-132,-10,761,649,-488,-752,-761,1576
-239,-127,112,185,-176,-10,742,468,-512,-712,-712,1586
-239,-107,132,176,-185,10,727,264,-556,-678,-673,1610
-195,-73,122,137,-161,24,693,88,-576,-644,-639,1620
-205,-63,142,137,-176,39,644,-68,-600,-610,-600,1649
-224,-59,166,142,-195,54,605,-195,-634,-561,-561,1669
-205,-20,185,112,-195,83,561,-249,-639,-512,-517,1698
-146,34,181,59,-166,107,542,-239,-600,-449,-459,1732
-107,78,185,15,-146,132,503,-254,-576,-390,-405,1747
-83,59,142,15,-112,98,434,-293,-595,-400,-395,1718
-102,39,142,34,-122,88,415,-298,-595,-390,-390,1718
-161,39,200,63,-181,117,488,-273,-581,-366,-366,1747
-205,34,239,88,-224,137,634,-268,-576,-366,-361,1742
-161,-5,156,83,-161,73,708,-283,-571,-395,-390,1713
-107,-34,73,73,-93,20,620,-273,-576,-400,-386,1688
-98,-39,59,68,-78,10,517,-273,-571,-376,-371,1693
-88,-29,59,59,-73,15,522,-239,-542,-332,-342,1713
-15,39,54,-10,-34,44,669,-171,-459,-249,-254,1776
5,98,93,-49,-44,93,976,-112,-381,-176,-176,1815
-39,49,88,-5,-63,68,1196,-127,-381,-176,-176,1791
-24,34,59,-5,-44,44,1215,-127,-386,-181,-181,1791
-24,39,63,-5,-44,49,1240,-127,-386,-181,-181,1791
-29,34,63,0,-49,49,1274,-127,-390,-181,-176,1786
-39,29,68,5,-54,49,1293,-127,-395,-181,-176,1786
-20,44,63,-10,-44,54,1293,-137,-410,-190,-185,1781
-5,54,59,-24,-34,54,1318,-127,-415,-195,-190,1781
5,44,39,-24,-20,39,1322,-137,-420,-200,-200,1776
15,29,15,-20,0,20,1313,-142,-425,-205,-205,1762
-5,15,20,-5,-15,15,1293,-161,-425,-190,-195,1762
-15,15,29,0,-24,20,1283,-166,-425,-176,-181,1762
-24,15,39,5,-34,24,1269,-176,-415,-176,-181,1752
-34,10,44,15,-39,24,1259,-190,-415,-176,-185,1752
-29,20,49,5,-39,34,1279,-181,-390,-171,-171,1757
-15,29,44,-5,-29,34,1283,-156,-390,-166,-166,1762
34,54,20,-44,5,34,1288,-137,-390,-161,-156,1767
59,73,15,-63,20,44,1288,-127,-376,-156,-151,1771
20,34,15,-24,0,24,1279,-146,-376,-146,-137,1767
-10,5,15,5,-15,10,1279,-146,-381,-146,-142,1767
-29,-10,20,20,-24,5,1264,-146,-381,-146,-156,1767
-59,-24,34,44,-49,5,1264,-146,-376,-137,-146,1767
-54,-15,39,34,-49,10,1254,-137,-361,-132,-117,1776
-59,-5,54,34,-59,24,1249,-132,-356,-132,-117,1786
-63,0,63,34,-63,29,1225,-137,-361,-132,-122,1781
-59,0,59,29,-59,29,1196,-146,-366,-122,-122,1762
-54,5,59,24,-59,29,1186,-171,-371,-137,-137,1767
-63,-10,54,39,-59,20,1186,-176,-371,-142,-137,1767
-59,-5,54,34,-59,24,1200,-161,-371,-146,-137,1776
-49,0,49,24,-49,24,1215,-156,-371,-132,-132,1810
-54,5,59,24,-59,29,1186,-185,-371,-137,-122,1767
-54,-10,44,34,-49,15,1152,-210,-371,-132,-127,1752
-20,-29,-10,24,-5,-20,1132,-205,-400,-117,-117,1742
-20,-44,-24,34,0,-34,1118,-205,-395,-117,-122,1732
-10,-29,-20,20,5,-24,1127,-200,-376,-107,-107,1742
-5,-15,-10,10,0,-15,1118,-176,-371,-98,-93,1747
-5,0,5,5,-5,0,1118,-166,-346,-88,-83,1752
-15,10,24,5,-20,15,1127,-161,-351,-78,-68,1752
-24,0,24,15,-24,10,1122,-176,-356,-83,-78,1742
-34,-10,24,24,-29,5,1132,-176,-356,-68,-63,1742
-44,-24,20,34,-34,-5,1122,-181,-361,-59,-59,1737
-54,-44,10,49,-34,-20,1122,-185,-366,-54,-49,1728
-49,-29,20,39,-34,-5,1103,-171,-351,-29,-20,1737
-44,-5,39,24,-44,15,1093,-161,-337,-15,-5,1742
-39,-5,34,24,-39,15,1054,-156,-332,-10,-5,1742
-34,10,44,15,-39,24,1049,-156,-337,0,5,1747
-39,0,39,20,-39,20,1039,-156,-327,15,15,1742
-54,-5,49,29,-54,20,1049,-151,-327,20,15,1742
-68,-15,54,44,-63,20,1039,-151,-312,29,29,1732
-83,-24,59,54,-73,15,1030,-156,-312,44,39,1728
-59,0,59,29,-59,29,1030,-151,-293,78,73,1732
-29,5,34,15,-34,20,986,-156,-317,98,93,1732
0,10,10,-5,-5,10,986,-166,-307,98,88,1732
34,34,0,-34,15,15,976,-151,-288,107,107,1732
24,29,5,-24,10,15,956,-132,-288,117,117,1737
10,34,24,-20,-10,29,956,-132,-288,122,117,1742
10,10,0,-10,5,5,952,-132,-298,107,107,1757
-5,0,5,5,-5,0,952,-132,-298,102,107,1767
15,15,0,-15,5,5,947,-127,-278,117,127,1747
15,20,5,-15,5,10,937,-122,-278,127,132,1747
10,15,5,-10,0,10,927,-117,-273,142,151,1757
-5,10,15,0,-10,10,913,-112,-268,151,146,1757
-10,0,10,5,-10,5,898,-102,-273,151,146,1762
-10,0,10,5,-10,5,878,-98,-273,151,146,1762
-10,15,24,0,-20,20,869,-93,-268,146,142,1757
-10,20,29,-5,-20,24,854,-88,-254,132,132,1762
0,15,15,-5,-10,15,830,-93,-278,117,117,1757
10,10,0,-10,5,5,815,-93,-278,102,98,1742
34,5,-29,-20,29,-15,810,-122,-264,93,88,1732
24,-10,-34,-5,29,-24,805,-98,-244,78,73,1728
10,10,0,-10,5,5,795,-88,-249,78,73,1718
29,24,-5,-24,15,10,791,-73,-259,73,68,1718
39,24,-15,-29,24,5,786,-73,-264,63,59,1718
49,24,-24,-34,34,0,781,-73,-264,49,49,1713
44,34,-10,-39,24,10,781,-59,-254,34,34,1718
24,54,29,-39,-5,39,791,-44,-224,34,29,1723
20,59,39,-39,-10,49,795,-29,-215,24,20,1728
-5,49,54,-20,-29,49,795,-20,-215,10,10,1728
-5,20,24,-5,-15,20,771,-24,-229,-10,-15,1723
-5,15,20,-5,-15,15,771,-20,-224,-20,-29,1708
10,10,0,-10,5,5,761,-10,-224,-34,-39,1713
10,20,10,-15,0,15,752,-15,-229,-44,-49,1723
10,15,5,-10,0,10,752,-5,-229,-59,-54,1737
-5,15,20,-5,-15,15,756,5,-224,-73,-68,1742
5,10,5,-5,0,5,761,5,-224,-88,-88,1718
5,5,0,-5,0,0,766,5,-234,-117,-112,1684
-5,15,20,-5,-15,15,781,24,-229,-122,-122,1684
-10,15,24,0,-20,20,795,29,-229,-127,-122,1684
-10,15,24,0,-20,20,805,29,-224,-132,-122,1693
-24,5,29,10,-29,15,810,20,-234,-132,-122,1703
-10,20,29,-5,-20,24,830,24,-239,-122,-127,1713
10,44,34,-24,-15,39,839,29,-244,-132,-142,1713
15,59,44,-34,-15,49,854,39,-239,-132,-137,1698
5,68,63,-34,-29,63,859,49,-249,-132,-137,1698
-5,49,54,-20,-29,49,844,24,-264,-156,-166,1679
-15,34,49,-10,-34,39,839,5,-288,-181,-185,1669
-24,20,44,5,-34,29,834,-10,-307,-205,-195,1659
-34,5,39,15,-39,20,839,-34,-317,-215,-210,1645
-24,24,49,0,-39,34,844,-44,-312,-210,-205,1635
-20,34,54,-5,-39,44,859,-39,-312,-210,-210,1630
-10,44,54,-15,-34,49,869,-39,-312,-215,-210,1635
0,63,63,-29,-34,63,874,-49,-312,-220,-215,1649
-5,34,39,-15,-24,34,869,-73,-342,-234,-229,1640
-15,20,34,0,-24,24,864,-78,-356,-234,-229,1630
-24,24,49,0,-39,34,874,-78,-361,-234,-229,1625
-34,24,59,5,-49,39,878,-83,-356,-234,-229,1625
-15,24,39,-5,-29,29,859,-102,-366,-234,-229,1630
-5,29,34,-10,-20,29,854,-117,-371,-244,-239,1615
5,39,34,-20,-15,34,854,-122,-371,-244,-239,1620
5,54,49,-29,-24,49,864,-127,-366,-239,-234,1625
-15,49,63,-15,-39,54,854,-122,-361,-234,-220,1640
-49,44,93,5,-73,68,849,-122,-361,-220,-210,1630
-49,15,63,20,-59,39,844,-122,-386,-215,-210,1625
-44,20,63,15,-54,39,849,-117,-386,-220,-220,1640
-68,20,88,24,-78,54,844,-117,-386,-224,-229,1640
-88,10,98,39,-93,54,839,-132,-400,-244,-249,1615
-88,10,98,39,-93,54,839,-132,-395,-244,-249,1615
-98,29,127,34,-112,78,839,-122,-381,-224,-234,1625
-88,15,102,39,-98,59,830,-142,-386,-244,-239,1610
-78,0,78,39,-78,39,810,-151,-405,-249,-244,1591
-68,-10,59,39,-63,24,820,-156,-405,-249,-244,1586
-68,-20,49,44,-59,15,830,-166,-395,-244,-244,1581
-54,10,63,24,-59,34,839,-166,-405,-254,-254,1571
-34,24,59,5,-49,39,839,-166,-400,-259,-254,1576
-20,44,63,-10,-44,54,839,-166,-400,-259,-254,1591
-24,59,83,-15,-54,68,839,-166,-410,-259,-259,1601
-29,44,73,-5,-54,59,839,-171,-400,-254,-259,1591
-24,54,78,-15,-54,63,849,-156,-386,-254,-259,1571
-29,63,93,-15,-63,78,859,-151,-386,-254,-259,1542
-34,59,93,-10,-63,73,859,-151,-400,-254,-259,1532
-34,49,83,-5,-59,63,864,-151,-400,-254,-259,1532
-34,39,73,0,-54,54,854,-151,-400,-249,-254,1542
-34,39,73,0,-54,54,854,-146,-400,-244,-249,1542
-34,39,73,0,-54,54,859,-142,-415,-239,-244,1542
-49,29,78,10,-63,54,849,-151,-420,-249,-249,1537
-63,24,88,20,-78,54,839,-166,-415,-239,-249,1532
-68,20,88,24,-78,54,830,-176,-420,-268,-273,1523
-83,20,102,34,-93,59,815,-185,-434,-293,-293,1513
-49,0,49,24,-49,24,776,-220,-444,-303,-293,1488
-34,10,44,15,-39,24,766,-210,-444,-273,-278,1493
-49,29,78,10,-63,54,771,-215,-439,-264,-264,1484
-49,39,88,5,-68,63,761,-224,-449,-273,-273,1493
-49,39,88,5,-68,63,761,-224,-449,-273,-273,1493
-49,39,88,5,-68,63,761,-224,-449,-273,-273,1493
-49,39,88,5,-68,63,761,-224,-449,-273,-273,1493
-83,15,98,34,-93,54,756,-239,-464,-288,-288,1479
-88,0,88,44,-88,44,752,-249,-464,-283,-283,1479
-78,-5,73,44,-78,34,756,-259,-464,-278,-283,1474
-73,-5,68,39,-73,29,752,-264,-454,-278,-283,1469
-73,0,73,39,-73,34,761,-259,-464,-278,-283,1469
-78,-20,59,49,-68,20,766,-249,-464,-278,-283,1469
-93,-15,78,54,-88,29,766,-249,-464,-278,-283,1469
-93,0,93,49,-93,44,766,-244,-464,-288,-283,1469
-88,-15,73,54,-83,29,747,-234,-473,-293,-298,1454
-78,-20,59,49,-68,20,756,-229,-473,-293,-298,1454
-63,-10,54,39,-59,20,756,-224,-473,-293,-293,1464
-54,-24,29,39,-44,0,752,-224,-468,-298,-293,1454
-73,-34,39,54,-59,0,761,-215,-459,-283,-283,1444
-78,-24,54,54,-68,15,766,-210,-459,-278,-278,1440
-93,-34,59,63,-78,10,766,-205,-464,-273,-273,1440
-122,-49,73,88,-98,10,747,-205,-468,-273,-273,1440
-127,-54,73,93,-102,10,756,-215,-478,-278,-278,1420
-102,-49,54,78,-78,0,756,-215,-483,-283,-273,1415
-83,-54,29,68,-59,-15,756,-220,-488,-278,-278,1415
-73,-59,15,68,-44,-24,756,-229,-498,-293,-288,1410
-88,-63,24,78,-59,-20,747,-239,-503,-312,-303,1410
-88,-68,20,78,-54,-24,752,-239,-503,-303,-298,1401
-83,-73,10,78,-49,-34,742,-239,-508,-303,-303,1401
-78,-83,-5,83,-39,-44,742,-244,-522,-312,-317,1381
-78,-78,0,78,-39,-39,747,-229,-508,-298,-303,1386
-83,-68,15,78,-49,-29,747,-224,-503,-293,-298,1396
-44,-54,-10,49,-20,-34,747,-220,-498,-288,-293,1401
-15,-29,-15,24,0,-24,742,-210,-493,-278,-283,1425
-24,-20,5,24,-15,-10,752,-195,-473,-254,-259,1444
-54,-29,24,44,-39,-5,747,-195,-464,-229,-234,1454
-68,-39,29,54,-49,-5,752,-200,-454,-239,-234,1444
-68,-29,39,49,-54,5,756,-195,-444,-224,-220,1454
-39,-10,29,24,-34,10,761,-190,-449,-210,-210,1454
-20,0,20,10,-20,10,756,-185,-449,-210,-210,1459
-20,0,20,10,-20,10,761,-185,-449,-215,-210,1444
-34,-15,20,24,-29,0,737,-185,-449,-215,-210,1440
-54,-24,29,39,-44,0,732,-166,-439,-195,-195,1444
-59,-20,39,39,-49,10,732,-161,-439,-195,-190,1449
-59,-20,39,39,-49,10,727,-156,-439,-205,-190,1454
-68,-20,49,44,-59,15,708,-151,-444,-205,-200,1459
-39,5,44,20,-44,24,717,-156,-444,-205,-205,1440
-15,10,24,5,-20,15,712,-166,-449,-205,-210,1440
-10,0,10,5,-10,5,703,-171,-454,-210,-210,1430
10,-5,-15,0,10,-10,693,-185,-459,-210,-215,1430
10,-15,-24,5,15,-20,678,-195,-473,-220,-229,1415
20,-10,-29,-5,24,-20,673,-205,-473,-224,-234,1415
34,-15,-49,-10,39,-34,664,-220,-478,-239,-244,1410
54,-24,-78,-15,63,-54,654,-234,-493,-249,-254,1396
20,-20,-39,0,29,-29,669,-224,-478,-244,-239,1396
10,-10,-20,0,15,-15,678,-215,-468,-234,-229,1405
5,10,5,-5,0,5,688,-210,-464,-229,-224,1405
-5,24,29,-10,-20,24,698,-200,-459,-224,-220,1405
-10,29,39,-10,-24,34,708,-215,-464,-234,-224,1396
0,15,15,-5,-10,15,698,-220,-468,-234,-229,1391
-10,-10,0,10,-5,-5,688,-239,-488,-249,-249,1386
-20,-34,-15,29,-5,-24,688,-244,-493,-249,-254,1386
-15,-10,5,15,-10,-5,683,-234,-488,-249,-244,1376
0,10,10,-5,-5,10,683,-234,-483,-249,-244,1371
15,10,-5,-10,10,0,678,-229,-478,-249,-244,1366
20,10,-10,-15,15,0,678,-229,-478,-244,-239,1362
-5,-15,-10,10,0,-15,664,-244,-488,-249,-244,1357
-15,-20,-5,20,-5,-15,659,-249,-488,-254,-249,1352
-24,-34,-10,29,-10,-24,654,-254,-488,-249,-249,1347
-49,-54,-5,54,-24,-29,649,-268,-488,-254,-254,1342
-78,-83,-5,83,-39,-44,644,-283,-498,-268,-264,1347
-88,-88,0,88,-44,-44,649,-288,-498,-268,-264,1342
-73,-78,-5,78,-34,-44,664,-278,-493,-268,-259,1347
-83,-68,15,78,-49,-29,669,-283,-483,-264,-259,1352
-93,-34,59,63,-78,10,708,-273,-468,-273,-268,1366
-93,-24,68,59,-83,20,742,-259,-459,-264,-259,1357
-24,49,73,-10,-49,59,791,-210,-405,-220,-229,1376
10,63,54,-34,-24,59,791,-205,-386,-210,-215,1366
-29,49,78,-10,-54,63,766,-239,-420,-239,-234,1352
-20,54,73,-15,-49,63,747,-283,-439,-220,-220,1376
29,39,10,-34,10,24,698,-342,-464,-176,-176,1405
10,39,29,-24,-10,34,654,-376,-468,-98,-93,1449
0,137,137,-68,-68,137,659,-356,-415,54,59,1552
44,234,190,-137,-73,210,649,-386,-405,190,190,1669
20,234,215,-127,-98,224,590,-444,-434,273,273,1752
5,239,234,-122,-117,234,532,-468,-400,405,405,1815
78,283,205,-181,-63,244,512,-429,-322,566,566,1889
112,293,181,-200,-34,234,498,-405,-259,693,688,1972
54,278,224,-166,-88,249,508,-351,-195,781,766,2059
39,293,254,-166,-107,273,581,-254,-93,874,864,2152
63,298,234,-181,-88,264,649,-171,-20,883,883,2167
34,239,205,-137,-88,220,678,-142,-49,683,683,2094
-24,210,234,-93,-132,220,703,-98,-39,434,429,1996
-44,205,249,-78,-146,224,732,-34,20,298,298,1942
-78,142,220,-29,-151,181,747,-5,54,215,210,1869
-127,54,181,39,-156,117,781,59,98,137,137,1742
-88,20,107,34,-98,63,830,146,205,44,44,1601
-10,-5,5,10,-10,0,844,195,254,-122,-117,1444
-15,-54,-39,34,10,-49,844,205,234,-342,-346,1264
-73,-117,-44,98,-15,-83,898,268,278,-454,-459,1122
-44,-156,-112,102,34,-137,996,400,371,-468,-473,1030
-15,-220,-205,117,93,-215,1054,522,429,-542,-542,952
-98,-283,-185,190,44,-234,1093,639,454,-620,-620,869
-122,-264,-142,195,10,-205,1176,761,454,-605,-605,859
-73,-229,-156,151,39,-195,1225,795,307,-654,-659,859
-78,-288,-210,185,63,-249,1215,727,49,-800,-795,805
-59,-283,-224,171,83,-254,1225,693,-127,-839,-844,781
0,-215,-215,107,107,-215,1288,732,-161,-781,-786,810
-29,-185,-156,107,63,-171,1352,742,-234,-766,-771,839
-83,-185,-102,137,10,-146,1401,698,-337,-786,-786,844
-73,-156,-83,117,5,-122,1435,644,-415,-786,-786,849
-49,-166,-117,107,34,-142,1449,600,-483,-810,-805,830
-88,-220,-132,156,20,-176,1459,556,-561,-854,-849,791
-102,-205,-102,156,0,-156,1503,522,-576,-830,-830,795
-102,-146,-44,127,-29,-98,1542,459,-551,-761,-771,815
-142,-127,15,137,-78,-59,1518,322,-566,-737,-732,791
-156,-142,15,151,-88,-63,1454,107,-625,-722,-717,761
-117,-132,-15,127,-54,-73,1415,-107,-669,-698,-698,752
-39,-68,-29,54,-5,-49,1386,-264,-664,-639,-639,761
-29,-10,20,20,-24,5,1362,-376,-639,-571,-576,810
-88,-24,63,59,-78,20,1342,-444,-610,-508,-508,854
-78,-10,68,44,-73,29,1313,-468,-576,-459,-464,869
-15,-20,-5,20,-5,-15,1244,-508,-586,-459,-454,839
-34,-98,-63,68,15,-83,1166,-561,-595,-459,-459,800
-112,-78,34,98,-73,-24,1161,-537,-551,-405,-415,820
-59,44,102,10,-83,73,1161,-503,-508,-346,-351,844
24,54,29,-39,-5,39,1078,-547,-542,-346,-351,805
-49,-44,5,49,-29,-20,961,-576,-556,-371,-376,752
-98,-78,20,88,-59,-29,888,-547,-532,-356,-361,737
20,10,-10,-15,15,0,844,-512,-493,-322,-332,756
93,59,-34,-73,63,10,805,-464,-439,-288,-283,781
63,-10,-73,-24,68,-44,752,-444,-400,-264,-273,781
59,-98,-156,20,107,-127,678,-439,-381,-264,-264,766
44,-98,-142,29,93,-122,659,-420,-366,-239,-239,771
34,-78,-112,24,73,-98,654,-410,-346,-220,-220,776
20,-68,-88,24,54,-78,659,-400,-332,-200,-195,776
0,-59,-59,29,29,-59,649,-390,-317,-181,-176,781
20,-24,-44,5,29,-34,630,-381,-317,-166,-171,771
44,5,-39,-24,39,-20,644,-371,-307,-156,-161,766
63,15,-49,-39,54,-20,639,-381,-298,-146,-156,756
83,20,-63,-49,73,-24,620,-386,-288,-137,-146,737
44,5,-39,-24,39,-20,634,-381,-273,-146,-151,732
24,-5,-29,-10,24,-20,639,-371,-268,-137,-142,727
5,-15,-20,5,10,-20,639,-366,-254,-142,-146,712
-15,-29,-15,24,0,-24,644,-366,-249,-146,-156,708
-44,-54,-10,49,-20,-34,639,-366,-239,-137,-146,698
-54,-59,-5,59,-24,-34,639,-351,-244,-137,-146,698
-29,-49,-20,39,-5,-34,639,-342,-249,-137,-142,698
-29,-44,-15,39,-10,-29,634,-342,-239,-137,-142,698
-20,-44,-24,34,0,-34,620,-342,-239,-132,-127,703
-20,-54,-34,39,5,-44,605,-332,-234,-137,-132,703
-10,-49,-39,29,15,-44,576,-322,-224,-142,-146,703
-10,-44,-34,29,10,-39,561,-312,-210,-137,-137,703
0,-20,-20,10,10,-20,586,-278,-181,-112,-107,712
0,-5,-5,5,0,-5,595,-268,-161,-102,-98,722
0,5,5,0,-5,5,586,-268,-151,-93,-93,717
10,10,0,-10,5,5,571,-273,-142,-73,-83,698
10,0,-10,-5,10,-5,556,-293,-151,-78,-93,693
5,-29,-34,15,20,-34,551,-293,-156,-83,-88,693
15,-39,-54,15,34,-49,561,-273,-161,-88,-83,703
29,-49,-78,10,54,-63,571,-264,-166,-73,-73,737
15,-44,-59,15,34,-54,581,-283,-151,-78,-68,756
-5,-59,-54,34,24,-59,566,-298,-137,-73,-68,786
10,-78,-88,34,49,-83,566,-283,-151,-59,-54,820
-10,-93,-83,54,34,-88,571,-273,-132,-59,-54,854
34,-63,-98,15,63,-83,561,-273,-122,-44,-39,869
63,-34,-98,-15,78,-68,551,-254,-117,-29,-24,878
88,-5,-93,-39,88,-49,551,-249,-93,-15,-15,888
102,20,-83,-59,93,-34,561,-249,-98,0,0,893
102,10,-93,-54,98,-44,551,-264,-102,-15,-15,893
102,10,-93,-54,98,-44,556,-264,-102,-10,-5,893
102,5,-98,-54,98,-49,542,-268,-107,-10,-5,888
102,-5,-107,-49,102,-59,537,-273,-112,-15,0,878
83,-10,-93,-34,88,-54,522,-268,-88,24,34,903
73,-5,-78,-34,73,-44,508,-259,-73,44,54,913
63,-24,-88,-20,73,-59,464,-254,-68,54,59,917
54,-29,-83,-10,68,-59,454,-254,-73,68,73,927
88,-5,-93,-39,88,-49,454,-239,-54,88,88,937
102,5,-98,-54,98,-49,464,-229,-54,98,93,952
117,10,-107,-63,112,-49,454,-224,-39,112,112,956
132,15,-117,-73,122,-54,444,-224,-39,132,127,966
112,5,-107,-59,107,-54,454,-234,-39,142,146,961
107,-15,-122,-44,112,-68,410,-244,-63,146,151,961
102,-34,-137,-34,117,-88,410,-259,-54,132,132,961
102,-34,-137,-34,117,-88,400,-249,-34,127,137,961
93,0,-93,-44,93,-49,410,-215,-29,171,176,981
88,24,-63,-54,73,-20,420,-210,-15,200,195,991
98,20,-78,-59,88,-29,425,-205,-10,210,205,1010
93,29,-63,-59,78,-20,434,-200,5,229,224,1025
93,24,-68,-59,78,-24,425,-215,0,229,224,1010
93,20,-73,-54,83,-29,420,-220,-5,224,220,1005
88,5,-83,-44,83,-39,415,-224,-5,224,229,1010
73,-10,-83,-29,78,-49,405,-229,-5,220,215,1005
54,-24,-78,-15,63,-54,390,-224,0,224,220,1010
49,-29,-78,-10,63,-54,371,-224,0,229,224,1010
44,-20,-63,-10,54,-44,361,-224,5,229,224,1005
39,-20,-59,-10,49,-39,346,-224,20,220,220,1010
44,-24,-68,-10,54,-49,307,-210,-5,224,224,1015
49,-29,-78,-10,63,-54,278,-210,-5,210,205,1000
68,-34,-102,-15,83,-68,259,-239,10,200,195,991
54,-49,-102,0,78,-78,239,-215,29,185,181,986
44,-20,-63,-10,54,-44,234,-181,49,200,195,1000
68,15,-54,-39,59,-20,224,-161,54,200,195,1015
83,34,-49,-59,63,-10,215,-156,63,195,190,1030
98,54,-44,-73,68,5,205,-151,78,185,185,1039
107,68,-39,-88,73,15,215,-127,78,181,181,1039
102,83,-20,-93,59,29,224,-112,107,181,176,1039
112,83,-29,-98,68,24,229,-98,117,171,166,1039
102,68,-34,-83,68,15,229,-88,117,156,156,1035
78,39,-39,-59,59,0,210,-98,112,132,127,1015
63,24,-39,-44,49,-10,215,-88,117,117,107,996
63,10,-54,-34,59,-24,210,-73,117,98,93,996
49,10,-39,-29,44,-15,205,-73,112,83,78,1000
44,10,-34,-24,39,-15,200,-44,122,83,88,1005
34,15,-20,-24,24,-5,210,-24,137,73,78,1010
49,15,-34,-29,39,-10,220,-15,146,63,63,986
54,15,-39,-34,44,-15,229,-5,146,39,44,952
63,24,-39,-44,49,-10,229,15,156,44,34,952
59,24,-34,-39,44,-5,239,20,151,39,34,952
59,24,-34,-39,44,-5,244,20,151,34,34,961
44,15,-29,-29,34,-10,244,10,137,34,34,971
44,20,-24,-29,34,-5,249,15,142,20,24,971
59,34,-24,-44,39,5,254,20,137,5,5,961
59,39,-20,-49,39,10,264,29,142,0,5,937
44,39,-5,-39,24,15,264,39,132,-5,0,927
20,15,-5,-15,10,5,254,24,107,-24,-20,913
-5,-5,0,5,-5,-5,244,5,83,-44,-39,908
-29,-24,5,29,-20,-10,234,-10,63,-63,-49,903
-54,-44,10,49,-34,-20,234,-34,54,-68,-63,893
-44,-15,29,29,-39,5,244,-20,54,-68,-63,888
-29,5,34,15,-34,20,254,-10,59,-63,-63,888
-10,24,34,-5,-24,29,259,-5,63,-63,-59,898
10,54,44,-29,-20,49,259,-10,68,-63,-59,917
10,34,24,-20,-10,29,249,-24,59,-63,-54,927
5,29,24,-15,-10,24,249,-20,54,-59,-54,927
0,44,44,-20,-24,44,264,-10,59,-54,-54,932
-5,54,59,-24,-34,54,273,-5,73,-49,-54,942
-5,24,29,-10,-20,24,254,-24,44,-68,-73,913
-5,20,24,-5,-15,20,239,-49,29,-88,-93,883
-5,20,24,-5,-15,20,229,-63,20,-98,-102,874
-15,24,39,-5,-29,29,229,-78,15,-102,-107,864
-15,15,29,0,-24,20,224,-78,20,-112,-112,878
-49,5,54,24,-54,29,224,-73,20,-102,-102,878
-49,-29,20,39,-34,-5,224,-68,-5,-102,-102,883
-44,-29,15,39,-29,-10,234,-59,-5,-112,-112,908
-49,-10,39,29,-44,15,234,-59,-5,-112,-117,927
-49,-20,29,34,-39,5,224,-73,-20,-127,-132,903
-29,-20,10,24,-20,-5,220,-73,-15,-122,-127,903
-20,0,20,10,-20,10,215,-63,0,-98,-107,913
0,24,24,-10,-15,24,224,-54,-5,-112,-117,913
10,29,20,-20,-5,24,205,-54,-15,-112,-117,908
20,39,20,-29,0,29,215,-49,-5,-107,-112,917
20,49,29,-34,-5,39,224,-49,15,-98,-107,927
5,29,24,-15,-10,24,229,-54,5,-98,-107,908
5,15,10,-10,-5,10,234,-59,10,-102,-107,913
0,5,5,0,-5,5,239,-63,10,-102,-107,927
-24,-10,15,20,-20,0,244,-68,0,-102,-112,937
-15,-29,-15,24,0,-24,229,-93,-10,-127,-132,917
-5,-15,-10,10,0,-15,224,-88,-5,-137,-142,878
-5,0,5,5,-5,0,220,-93,-15,-146,-151,830
-5,0,5,5,-5,0,205,-102,-39,-156,-161,800
-5,5,10,0,-10,5,215,-98,-24,-146,-156,820
-5,0,5,5,-5,0,210,-102,-20,-142,-146,839
-5,5,10,0,-10,5,215,-102,-15,-137,-137,849
-5,10,15,0,-10,10,224,-102,-24,-132,-127,859
15,20,5,-15,5,10,215,-102,-5,-112,-102,878
-20,-10,10,15,-15,0,185,-117,-20,-127,-127,859
-20,-5,15,15,-20,5,195,-112,-15,-117,-117,869
-20,0,20,10,-20,10,195,-107,-10,-117,-117,869
-20,5,24,10,-24,15,195,-102,-5,-117,-117,869
-20,10,29,5,-24,20,195,-98,0,-117,-117,869
-29,10,39,10,-34,24,185,-93,5,-132,-122,859
-29,10,39,10,-34,24,185,-93,5,-127,-117,864
-15,20,34,0,-24,24,195,-93,5,-122,-117,864
-5,34,39,-15,-24,34,195,-88,15,-122,-117,864
-5,24,29,-10,-20,24,195,-98,5,-122,-127,854
-10,0,10,5,-10,5,200,-93,5,-122,-127,844
-24,0,24,15,-24,10,200,-98,5,-122,-127,834
-24,10,34,10,-29,20,200,-98,5,-132,-127,825
-39,-10,29,24,-34,10,190,-107,-5,-132,-122,830
-39,-20,20,29,-29,0,200,-112,-5,-127,-122,830
-34,-15,20,24,-29,0,200,-117,-5,-122,-117,839
-34,-34,0,34,-20,-20,195,-127,0,-122,-117,830
-34,-34,0,34,-20,-20,205,-127,10,-117,-117,825
-29,-24,5,29,-20,-10,210,-122,10,-112,-112,825
-34,-34,0,34,-20,-20,210,-117,5,-107,-107,830
-54,-49,5,54,-29,-24,190,-117,0,-107,-107,834
-49,-34,15,44,-34,-10,190,-122,-15,-117,-117,820
-15,-20,-5,20,-5,-15,190,-117,-15,-117,-107,810
15,-15,-29,0,20,-24,190,-117,-15,-107,-107,805
34,-10,-44,-10,39,-29,190,-122,-20,-117,-112,795
29,5,-24,-15,24,-10,195,-117,-15,-117,-112,805
29,10,-20,-20,24,-5,215,-112,-5,-98,-93,795
34,15,-20,-24,24,-5,220,-107,0,-88,-83,795
39,15,-24,-24,29,-5,234,-107,-5,-88,-83,776
10,-20,-29,5,20,-24,229,-107,-5,-78,-83,752
-24,-29,-5,29,-10,-20,229,-107,-5,-78,-83,742
-15,-34,-20,24,0,-29,229,-107,-5,-78,-83,727
-15,-29,-15,24,0,-24,224,-102,-5,-73,-78,732
-20,-10,10,15,-15,0,220,-93,-5,-78,-83,727
-34,-20,15,29,-24,-5,210,-98,-5,-73,-78,712
-34,-29,5,34,-20,-15,210,-107,-5,-102,-98,678
-20,-20,0,20,-10,-10,210,-107,-5,-107,-102,664
15,10,-5,-10,10,0,215,-88,10,-88,-93,669
49,20,-29,-34,39,-5,220,-68,10,-83,-83,678
63,20,-44,-39,54,-15,234,-54,10,-83,-73,669
63,5,-59,-34,59,-29,220,-39,10,-78,-63,669
39,15,-24,-24,29,-5,239,-20,15,-68,-63,644
29,20,-10,-24,20,5,244,-15,20,-68,-63,630
24,20,-5,-20,15,5,244,-10,24,-78,-68,615
10,20,10,-15,0,15,229,-5,24,-78,-83,600
0,10,10,-5,-5,10,234,5,29,-78,-83,581
-15,0,15,10,-15,5,234,0,29,-78,-83,581
-49,-24,24,39,-39,0,229,0,29,-83,-78,571
-68,-44,24,59,-49,-10,224,-10,29,-83,-78,571
-59,-29,29,44,-44,0,239,5,34,-63,-63,561
-49,-10,39,29,-44,15,244,10,44,-59,-59,556
-34,0,34,20,-34,15,244,10,49,-63,-59,547
-15,5,20,5,-20,10,244,10,44,-63,-59,527
-10,-10,0,10,-5,-5,224,-5,34,-73,-78,503
0,-10,-10,5,5,-10,220,-10,29,-78,-83,508
15,0,-15,-5,15,-10,215,-20,20,-88,-93,503
24,5,-20,-15,20,-10,210,-24,10,-98,-102,498
24,20,-5,-20,15,5,220,-20,24,-83,-93,512
29,15,-15,-20,20,0,220,-15,29,-78,-83,512
15,0,-15,-5,15,-10,220,-24,20,-88,-88,512
0,-15,-15,10,5,-15,229,-20,24,-83,-78,517
-15,-10,5,15,-10,-5,220,-24,20,-88,-83,512
-10,0,10,5,-10,5,215,-29,15,-93,-88,503
-5,-10,-5,10,0,-10,205,-29,10,-98,-93,493
-10,-20,-10,15,0,-15,200,-34,0,-98,-93,483
-34,-34,0,34,-20,-20,210,-34,10,-88,-93,493
-54,-29,24,44,-39,-5,210,-34,10,-88,-93,493
-73,-34,39,54,-59,0,210,-34,10,-78,-88,493
-107,-44,63,78,-88,10,210,-44,10,-78,-88,493
-98,-49,49,73,-73,0,210,-39,10,-83,-78,493
-78,-39,39,59,-59,0,210,-34,10,-83,-78,483
-34,-15,20,24,-29,0,220,-15,15,-83,-73,483
-15,10,24,5,-20,15,220,-10,24,-78,-73,483
-24,-15,10,20,-20,-5,190,-20,29,-68,-63,468
-24,-44,-20,34,-5,-34,176,-44,10,-78,-73,459
-44,-10,34,29,-39,10,176,-54,5,-44,-54,488
-49,93,142,-20,-98,117,176,-49,44,44,39,576
-20,137,156,-59,-88,146,151,-73,59,142,137,659
10,112,102,-59,-49,107,83,-146,10,190,190,712
-39,88,127,-24,-83,107,15,-224,-54,224,224,771
-98,137,234,-20,-166,185,0,-249,-59,312,317,893
-78,205,283,-63,-181,244,-5,-239,-5,473,468,1025
-5,254,259,-122,-132,254,-24,-220,44,610,610,1093
39,283,244,-161,-102,264,-24,-171,122,742,742,1176
-15,259,273,-122,-146,264,15,-88,215,864,864,1288
-59,224,283,-83,-171,254,24,-39,273,947,937,1352
5,215,210,-107,-102,210,20,-24,288,937,922,1337
44,210,166,-127,-63,185,39,10,293,810,805,1308
-20,176,195,-78,-107,185,73,39,307,659,649,1264
-83,151,234,-34,-161,190,102,63,322,532,532,1200
-83,142,224,-29,-156,181,122,93,342,439,439,1118
-63,102,166,-20,-117,132,176,156,410,405,410,1020
-112,29,142,44,-127,83,234,249,527,386,386,888
-156,-63,93,112,-127,15,259,298,581,283,278,727
-137,-93,44,117,-93,-24,293,342,625,137,137,581
-29,-20,10,24,-20,-5,400,449,732,83,83,478
29,-24,-54,0,39,-39,464,556,839,83,78,400
-44,-151,-107,98,29,-132,493,644,927,29,34,327
-142,-215,-73,181,-34,-146,556,786,1039,15,20,293
-132,-176,-44,156,-44,-112,615,937,1142,0,-5,249
-83,-161,-78,122,-5,-122,664,1020,1122,-112,-112,190
-98,-205,-107,151,5,-156,703,1059,981,-268,-268,166
-142,-254,-112,200,-15,-185,727,1044,766,-400,-410,146
-161,-268,-107,215,-29,-190,737,1039,590,-478,-493,127
-166,-229,-63,200,-54,-146,795,1098,527,-478,-483,161
-166,-166,0,166,-83,-83,874,1142,468,-459,-464,224
-215,-166,49,190,-132,-59,908,1103,346,-498,-493,273
-273,-215,59,244,-166,-78,913,1054,244,-512,-508,273
-239,-176,63,210,-151,-59,952,1088,210,-493,-493,288
-181,-137,44,161,-112,-49,966,1054,132,-512,-512,293
-166,-146,20,156,-93,-63,932,942,34,-556,-561,264
-137,-132,5,137,-73,-63,932,830,15,-542,-547,273
-151,-88,63,122,-107,-15,947,727,20,-478,-488,317
-229,-78,151,156,-190,34,927,537,-24,-429,-439,356
-268,-117,151,195,-210,15,874,293,-107,-425,-429,351
-195,-112,83,156,-142,-15,820,117,-146,-400,-405,351
-88,-63,24,78,-59,-20,771,-39,-171,-366,-356,361
-78,-59,20,68,-49,-20,722,-156,-185,-317,-317,390
-146,-78,68,112,-107,-5,688,-220,-190,-278,-283,410
-215,-93,122,156,-171,15,649,-249,-190,-254,-244,425
-215,-49,166,132,-190,59,620,-254,-176,-205,-210,449
-142,29,171,59,-156,98,600,-264,-166,-176,-181,478
-112,20,132,49,-122,73,522,-317,-215,-195,-205,478
-161,-68,93,117,-127,10,449,-351,-249,-220,-229,459
-195,-73,122,137,-161,24,410,-327,-224,-181,-195,473
-142,-24,117,83,-132,44,366,-273,-181,-142,-156,493
-49,5,54,24,-54,29,317,-244,-156,-137,-142,488
0,0,0,0,0,0,264,-205,-122,-112,-107,483
-29,10,39,10,-34,24,220,-161,-63,-68,-59,493
-93,-20,73,59,-83,24,151,-151,-49,-54,-39,498
-122,-59,63,93,-93,0,107,-132,-39,-29,-29,508
-68,-20,49,44,-59,15,112,-88,0,20,20,561
-49,-29,20,39,-34,-5,73,-98,-15,20,10,561
-44,-20,24,34,-34,0,59,-98,-15,15,5,561
-44,-20,24,34,-34,0,54,-98,-20,10,5,556
-49,-20,29,34,-39,5,34,-98,-24,5,0,556
-63,-29,34,49,-49,0,20,-83,-29,0,-5,551
-73,-34,39,54,-59,0,39,-68,-24,0,-5,551
-88,-59,29,73,-59,-15,39,-73,-20,0,-10,547
-102,-88,15,98,-59,-39,24,-73,-15,0,-10,532
-102,-63,39,83,-73,-15,24,-63,-10,10,15,556
-93,-44,49,68,-73,0,24,-49,-5,29,34,571
-83,-24,59,54,-73,15,20,-39,10,34,39,576
-73,-10,63,44,-68,24,20,-34,15,39,39,590
-68,-34,34,54,-54,0,39,-24,20,49,49,600
-63,-39,24,54,-44,-10,44,-10,20,49,49,610
-24,-29,-5,29,-10,-20,49,0,20,49,54,620
-10,-24,-15,20,0,-20,49,0,34,49,54,630
-29,-54,-24,44,-5,-39,49,-20,15,54,59,634
-49,-73,-24,63,-15,-49,49,-20,10,49,54,634
-59,-78,-20,68,-20,-49,34,-20,10,44,39,634
-78,-83,-5,83,-39,-44,34,-20,15,49,49,634
-49,-54,-5,54,-24,-29,39,5,34,68,73,639
-39,-34,5,39,-24,-15,49,15,44,73,78,654
-29,-20,10,24,-20,-5,39,15,44,78,78,654
-10,-10,0,10,-5,-5,24,10,44,93,83,639
-5,0,5,5,-5,0,34,-20,39,83,83,630
-15,-20,-5,20,-5,-15,34,-20,39,83,88,625
-10,-20,-10,15,0,-15,49,0,39,83,93,630
0,-20,-20,10,10,-20,63,10,39,102,102,659
-5,-10,-5,10,0,-10,54,-15,39,98,112,644
-15,-20,-5,20,-5,-15,29,-34,49,102,107,639
10,-34,-44,15,24,-39,20,-24,29,117,117,639
0,-44,-44,24,20,-44,15,-20,44,117,112,639
0,-34,-34,20,15,-34,24,-10,59,137,122,649
-5,-34,-29,20,10,-34,24,10,59,146,142,664
-15,-34,-20,24,0,-29,34,15,78,156,156,678
-34,-39,-5,39,-15,-24,54,15,68,166,176,688
-44,-39,5,44,-24,-20,49,5,59,161,166,688
-44,-39,5,44,-24,-20,59,10,63,176,181,688
-44,-44,0,44,-24,-24,49,10,63,185,185,683
-44,-54,-10,49,-20,-34,49,10,63,190,195,673
-54,-63,-10,59,-24,-39,39,0,68,200,210,678
-54,-63,-10,59,-24,-39,29,5,73,210,220,678
-54,-88,-34,73,-10,-63,-10,5,68,210,215,673
-54,-98,-44,78,-5,-73,-15,0,54,215,220,673
-29,-88,-59,59,15,-73,0,-15,54,229,229,673
-24,-83,-59,54,15,-73,15,-15,54,234,229,678
-20,-83,-63,54,20,-73,10,-20,68,244,244,673
-15,-83,-68,49,24,-78,5,-29,68,259,254,673
-24,-63,-39,44,5,-54,20,-34,78,273,278,669
-20,-63,-44,44,10,-54,-20,-49,54,283,288,669
-15,-63,-49,39,15,-59,-15,-68,63,273,273,669
-5,-44,-39,24,15,-44,-20,-63,83,273,283,669
-10,-20,-10,15,0,-15,-20,-34,88,307,312,678
-10,-5,5,10,-10,0,-10,-34,93,327,322,678
5,-20,-24,10,15,-24,-5,-34,88,327,322,688
5,-20,-24,10,15,-24,5,-34,93,337,332,693
29,-24,-54,0,39,-39,-5,-44,93,332,327,678
34,-29,-63,0,49,-49,-20,-44,93,332,327,673
34,-44,-78,5,54,-63,-34,-44,98,337,342,678
24,-59,-83,20,54,-73,-54,-44,102,337,332,673
0,-73,-73,39,34,-73,-78,-54,102,332,327,678
-10,-88,-78,49,34,-83,-98,-59,98,327,322,678
-20,-88,-68,54,24,-78,-107,-63,98,317,312,673
-29,-98,-68,63,20,-83,-122,-68,107,298,298,678
-5,-73,-68,39,29,-73,-142,-49,98,307,307,683
10,-59,-68,24,39,-63,-161,-44,102,298,293,669
39,-44,-83,5,59,-63,-171,-68,122,293,288,659
34,-39,-73,5,54,-59,-181,-39,146,283,278,654
15,-20,-34,5,24,-29,-210,-20,151,273,268,659
29,-5,-34,-10,29,-20,-234,-5,151,268,264,664
34,-5,-39,-15,34,-24,-259,-5,156,259,254,669
39,-5,-44,-15,39,-24,-283,-5,166,244,244,669
34,-15,-49,-10,39,-34,-283,20,185,234,244,683
15,-5,-20,-5,15,-15,-273,34,215,239,244,688
10,-10,-20,0,15,-15,-268,49,224,234,239,693
-15,-29,-15,24,0,-24,-268,59,224,224,234,693
-10,-34,-24,24,5,-29,-268,68,215,205,210,664
-5,-34,-29,20,10,-34,-254,78,224,195,195,634
15,-34,-49,10,29,-44,-249,93,229,181,185,625
20,-20,-39,0,29,-29,-244,93,229,171,176,620
29,-5,-34,-10,29,-20,-210,122,244,185,181,644
24,15,-10,-20,15,0,-171,142,254,181,176,659
44,29,-15,-34,29,5,-132,151,259,176,166,644
54,44,-10,-49,29,15,-93,161,254,156,151,620
24,10,-15,-15,20,-5,-49,171,249,137,127,610
0,-15,-15,10,5,-15,-15,176,239,127,122,600
-20,-39,-20,29,0,-29,15,176,234,117,117,600
-54,-73,-20,63,-20,-49,39,166,215,112,112,600
-63,-68,-5,68,-29,-39,54,161,210,122,117,615
-49,-54,-5,54,-24,-29,68,166,205,112,102,620
-49,-49,0,49,-24,-24,88,176,210,112,107,610
-63,-49,15,59,-39,-20,98,185,200,112,107,615
-73,-59,15,68,-44,-24,98,171,185,98,93,615
